Time,Amplitude
3.976,1550
3.976,1551
3.978,1552
3.978,1553
3.99,1553
3.992,1552
3.994,1552
3.994,1550
3.962,1550
3.962,1553
3.966,1553
3.968,1552
3.966,1551
3.966,1550
3.91,1550
3.91,1553
3.914,1553
3.914,1550
3.634,1550
3.634,1551
3.636,1552
3.636,1553
3.648,1553
3.65,1552
3.652,1552
3.652,1550
3.586,1550
3.586,1551
3.588,1552
3.588,1553
3.6,1553
3.602,1552
3.604,1552
3.604,1550
1.636,1550
1.636,1553
1.64,1553
1.642,1552
1.64,1551
1.64,1550
1.38,1550
1.38,1553
1.384,1553
1.386,1552
1.384,1551
1.384,1550
0.998,1550
0.998,1552
1.0,1553
1.004,1553
1.004,1551
1.002,1550
0.944,1550
0.944,1551
0.946,1552
0.946,1553
0.958,1553
0.96,1552
0.96,1551
0.962,1550
0.964,1550
0.966,1551
0.966,1553
0.97,1553
0.97,1550
0.632,1550
0.632,1552
0.634,1553
0.638,1553
0.638,1551
0.636,1550
0.502,1550
0.502,1551
0.504,1552
0.504,1553
0.516,1553
0.518,1552
0.52,1552
0.518,1551
0.52,1550
0.246,1550
0.246,1551
0.248,1552
0.248,1553
0.26,1553
0.262,1552
0.264,1552
0.262,1551
0.264,1550
0.164,1550
0.164,1553
0.168,1553
0.17,1552
0.168,1551
0.168,1550
4.102,1547
1.51,1547
0.216,1545
0.216,1546
0.218,1547
0.222,1547
0.224,1548
0.228,1548
0.23,1549
0.236,1549
0.238,1548
0.238,1546
0.236,1545
0.234,1546
0.23,1546
0.228,1545
0.934,1544
0.936,1544
0.92,1544
0.922,1544
3.75,1543
3.75,1547
3.752,1546
3.768,1546
3.768,1543
1.264,1543
1.264,1546
1.282,1546
1.282,1543
1.068,1542
1.066,1543
1.064,1543
1.064,1552
1.066,1553
1.068,1553
1.07,1552
1.07,1546
1.072,1545
1.076,1545
1.076,1542
1.002,1542
1.0,1543
1.0,1547
1.002,1548
1.004,1548
1.008,1550
1.008,1551
1.008,1550
1.0,1546
1.0,1544
1.004,1542
1.01,1542
1.012,1543
1.01,1544
1.006,1544
1.004,1545
1.008,1547
1.01,1547
1.014,1549
1.014,1550
1.012,1551
1.014,1551
1.014,1549
1.012,1548
1.012,1547
1.01,1547
1.008,1546
1.01,1545
1.01,1544
1.012,1543
1.012,1542
0.814,1542
0.812,1543
0.806,1543
0.806,1553
0.81,1553
0.812,1552
0.812,1546
0.814,1545
0.816,1545
0.818,1546
0.818,1552
0.82,1553
0.822,1553
0.824,1552
0.824,1546
0.826,1545
0.828,1545
0.83,1546
0.83,1553
0.834,1553
0.836,1552
0.836,1545
0.834,1544
0.834,1543
0.832,1542
0.826,1542
0.824,1543
0.822,1543
0.82,1542
0.762,1542
0.76,1543
0.754,1543
0.754,1553
0.758,1553
0.76,1552
0.76,1546
0.762,1545
0.764,1545
0.766,1546
0.766,1552
0.768,1553
0.77,1553
0.772,1552
0.772,1546
0.774,1545
0.776,1545
0.778,1546
0.778,1553
0.782,1553
0.784,1552
0.784,1545
0.782,1544
0.782,1543
0.78,1542
0.774,1542
0.772,1543
0.77,1543
0.768,1542
0.726,1542
0.724,1543
0.718,1543
0.718,1553
0.722,1553
0.724,1552
0.724,1546
0.726,1545
0.728,1545
0.73,1546
0.73,1552
0.732,1553
0.734,1553
0.736,1552
0.736,1546
0.738,1545
0.74,1545
0.742,1546
0.742,1553
0.746,1553
0.748,1552
0.748,1545
0.746,1544
0.746,1543
0.744,1542
0.738,1542
0.736,1543
0.734,1543
0.732,1542
0.636,1542
0.634,1543
0.634,1547
0.636,1548
0.638,1548
0.642,1550
0.642,1551
0.642,1550
0.634,1546
0.634,1544
0.638,1542
0.644,1542
0.646,1543
0.644,1544
0.64,1544
0.638,1545
0.642,1547
0.644,1547
0.648,1549
0.648,1550
0.646,1551
0.648,1551
0.648,1549
0.646,1548
0.646,1547
0.644,1547
0.642,1546
0.646,1544
0.646,1542
0.556,1542
0.554,1543
0.548,1543
0.548,1553
0.552,1553
0.554,1552
0.554,1546
0.556,1545
0.558,1545
0.56,1546
0.56,1552
0.562,1553
0.564,1553
0.566,1552
0.566,1546
0.568,1545
0.57,1545
0.572,1546
0.572,1553
0.576,1553
0.578,1552
0.578,1545
0.576,1544
0.576,1543
0.574,1542
0.568,1542
0.566,1543
0.564,1543
0.562,1542
0.324,1542
0.322,1543
0.322,1545
0.326,1545
0.328,1544
0.326,1545
0.324,1545
0.322,1544
0.326,1542
0.332,1542
0.334,1543
0.332,1544
0.332,1545
0.322,1550
0.324,1551
0.324,1553
0.34,1553
0.338,1552
0.34,1551
0.332,1551
0.33,1550
0.34,1545
0.338,1544
0.338,1542
0.92,1541
4.058,1539
4.058,1542
4.062,1544
4.062,1545
4.06,1546
4.056,1546
4.054,1545
4.054,1543
4.054,1544
4.052,1545
4.052,1546
4.05,1547
4.05,1549
4.048,1550
4.048,1553
4.052,1553
4.052,1552
4.054,1551
4.054,1550
4.058,1548
4.062,1548
4.068,1551
4.068,1552
4.07,1553
4.072,1552
4.074,1552
4.074,1550
4.072,1549
4.072,1548
4.07,1547
4.07,1546
4.068,1545
4.068,1543
4.066,1542
4.066,1541
4.064,1540
4.064,1539
3.806,1539
3.806,1540
3.804,1541
3.804,1543
3.802,1544
3.802,1551
3.806,1553
3.816,1553
3.82,1551
3.82,1550
3.822,1549
3.822,1546
3.818,1544
3.818,1543
3.812,1543
3.81,1542
3.81,1540
3.808,1539
1.102,1539
1.1,1540
1.1,1543
1.102,1544
1.102,1546
1.106,1548
1.106,1549
1.11,1551
1.118,1551
1.12,1550
1.12,1549
1.126,1546
1.126,1539
1.028,1539
1.028,1543
1.026,1544
1.016,1544
1.018,1545
1.018,1546
1.026,1546
1.028,1547
1.028,1551
1.03,1550
1.032,1551
1.032,1547
1.034,1546
1.042,1546
1.04,1545
1.042,1544
1.034,1544
1.032,1543
1.032,1539
0.382,1539
0.382,1542
0.386,1544
0.386,1545
0.384,1546
0.38,1546
0.378,1545
0.378,1543
0.378,1544
0.376,1545
0.376,1546
0.374,1547
0.374,1549
0.372,1550
0.372,1553
0.376,1553
0.376,1552
0.378,1551
0.378,1550
0.382,1548
0.386,1548
0.392,1551
0.392,1552
0.394,1553
0.396,1552
0.398,1552
0.398,1550
0.396,1549
0.396,1548
0.394,1547
0.394,1546
0.392,1545
0.392,1543
0.39,1542
0.39,1541
0.388,1540
0.388,1539
0.178,1539
0.178,1540
0.176,1541
0.176,1543
0.174,1544
0.174,1545
0.172,1546
0.174,1547
0.174,1550
0.176,1551
0.176,1552
0.178,1553
0.188,1553
0.192,1551
0.192,1550
0.194,1549
0.194,1546
0.19,1544
0.19,1543
0.184,1543
0.182,1542
0.182,1540
0.18,1539
4.008,1538
4.008,1539
4.0,1543
4.0,1544
3.998,1545
3.998,1549
4.008,1549
4.01,1550
4.01,1553
4.012,1552
4.014,1553
4.014,1550
4.016,1549
4.016,1547
4.014,1546
4.014,1538
3.87,1538
3.87,1541
3.872,1542
3.872,1553
3.876,1553
3.876,1538
1.618,1538
1.618,1541
1.62,1542
1.62,1553
1.624,1553
1.624,1538
1.364,1538
1.364,1541
1.366,1542
1.366,1553
1.37,1553
1.37,1538
1.154,1538
1.154,1541
1.156,1542
1.156,1553
1.16,1553
1.16,1538
1.046,1538
1.046,1541
1.048,1542
1.048,1553
1.052,1553
1.052,1538
0.926,1538
0.924,1539
0.92,1539
0.922,1539
0.924,1540
0.926,1539
0.93,1539
0.934,1541
0.93,1543
0.926,1543
0.924,1542
0.926,1543
0.926,1547
0.928,1546
0.93,1547
0.93,1543
0.934,1541
0.934,1540
0.93,1538
0.928,1539
0.904,1538
0.904,1539
0.896,1543
0.896,1544
0.894,1545
0.894,1549
0.904,1549
0.906,1550
0.906,1553
0.908,1552
0.91,1553
0.91,1550
0.912,1549
0.912,1547
0.91,1546
0.91,1538
0.676,1538
0.676,1541
0.678,1542
0.678,1553
0.682,1553
0.682,1538
4.108,1537
4.106,1538
4.106,1540
4.1,1543
4.1,1544
4.098,1545
4.1,1545
4.1,1543
4.104,1541
4.106,1542
4.106,1552
4.108,1553
4.11,1553
4.112,1552
4.112,1537
4.08,1537
4.08,1540
4.082,1541
4.08,1542
4.08,1553
4.084,1553
4.084,1552
4.086,1551
4.084,1550
4.084,1545
4.086,1544
4.088,1545
4.088,1547
4.092,1549
4.092,1551
4.094,1552
4.096,1551
4.098,1552
4.098,1548
4.094,1546
4.094,1544
4.09,1542
4.09,1541
4.088,1540
4.088,1538
4.086,1537
4.084,1537
4.082,1538
3.98,1537
3.978,1538
3.976,1538
3.974,1539
3.974,1541
3.976,1541
3.978,1542
3.978,1541
3.98,1540
3.982,1540
3.986,1542
3.986,1544
3.98,1547
3.982,1547
3.982,1546
3.986,1544
3.986,1541
3.984,1540
3.98,1540
3.978,1541
3.976,1541
3.974,1540
3.978,1538
3.98,1538
3.982,1537
3.984,1537
3.992,1541
3.992,1542
3.99,1543
3.99,1545
3.988,1546
3.988,1547
3.99,1546
3.99,1544
3.992,1543
3.992,1541
3.99,1540
3.99,1539
3.988,1538
3.986,1538
3.984,1537
3.926,1537
3.924,1538
3.922,1538
3.922,1540
3.926,1540
3.93,1542
3.926,1544
3.928,1545
3.926,1546
3.928,1546
3.932,1548
3.932,1549
3.93,1550
3.928,1550
3.926,1551
3.924,1550
3.922,1551
3.92,1551
3.918,1550
3.92,1551
3.92,1552
3.918,1553
3.932,1553
3.934,1552
3.934,1551
3.936,1550
3.938,1550
3.94,1551
3.94,1552
3.942,1553
3.952,1553
3.956,1551
3.956,1549
3.958,1548
3.958,1543
3.96,1542
3.962,1543
3.962,1544
3.964,1545
3.968,1545
3.968,1542
3.958,1542
3.956,1541
3.956,1539
3.952,1537
3.944,1537
3.942,1538
3.94,1538
3.94,1541
3.938,1542
3.938,1544
3.936,1545
3.934,1544
3.934,1542
3.934,1543
3.932,1544
3.93,1543
3.93,1541
3.928,1540
3.924,1540
3.922,1539
3.924,1538
3.926,1538
3.928,1537
3.93,1538
3.932,1538
3.934,1539
3.934,1540
3.936,1540
3.934,1539
3.934,1538
3.932,1538
3.93,1537
3.892,1537
3.89,1538
3.888,1538
3.888,1540
3.886,1541
3.886,1550
3.888,1551
3.888,1552
3.89,1553
3.9,1553
3.904,1551
3.904,1549
3.906,1548
3.906,1543
3.908,1542
3.91,1543
3.91,1544
3.912,1545
3.916,1545
3.916,1542
3.906,1542
3.904,1541
3.904,1539
3.9,1537
3.812,1537
3.812,1538
3.814,1537
3.818,1537
3.82,1538
3.816,1540
3.814,1540
3.816,1540
3.818,1539
3.82,1539
3.82,1537
3.784,1537
3.782,1538
3.78,1538
3.78,1540
3.778,1541
3.778,1550
3.78,1551
3.78,1552
3.782,1553
3.792,1553
3.796,1551
3.796,1549
3.798,1548
3.798,1542
3.796,1541
3.796,1539
3.792,1537
3.734,1537
3.732,1538
3.73,1538
3.73,1542
3.732,1543
3.732,1544
3.734,1545
3.732,1546
3.73,1546
3.73,1549
3.728,1550
3.73,1551
3.73,1552
3.732,1553
3.736,1553
3.736,1550
3.734,1549
3.738,1547
3.74,1548
3.74,1549
3.742,1550
3.742,1551
3.744,1552
3.746,1552
3.746,1551
3.748,1550
3.748,1549
3.746,1548
3.746,1547
3.744,1546
3.744,1545
3.742,1545
3.738,1543
3.738,1542
3.736,1541
3.736,1540
3.738,1539
3.742,1541
3.742,1540
3.74,1539
3.738,1539
3.734,1541
3.746,1547
3.746,1548
3.748,1549
3.746,1550
3.746,1551
3.744,1552
3.742,1551
3.742,1549
3.74,1548
3.74,1547
3.738,1547
3.734,1549
3.736,1550
3.736,1552
3.734,1553
3.73,1551
3.73,1547
3.734,1545
3.732,1544
3.732,1543
3.73,1542
3.73,1539
3.734,1537
3.742,1537
3.746,1539
3.746,1542
3.744,1543
3.746,1542
3.746,1538
3.744,1537
3.712,1537
3.71,1538
3.708,1538
3.708,1540
3.706,1541
3.706,1550
3.708,1551
3.708,1552
3.71,1553
3.72,1553
3.724,1551
3.724,1548
3.726,1547
3.726,1543
3.724,1542
3.724,1539
3.72,1537
3.662,1537
3.66,1538
3.658,1538
3.658,1540
3.656,1541
3.656,1550
3.658,1551
3.658,1552
3.66,1553
3.67,1553
3.674,1551
3.674,1549
3.676,1548
3.676,1544
3.678,1543
3.68,1544
3.68,1546
3.698,1546
3.698,1543
3.678,1543
3.674,1541
3.674,1539
3.67,1537
3.638,1537
3.636,1538
3.634,1538
3.632,1539
3.632,1541
3.634,1541
3.636,1542
3.636,1541
3.638,1540
3.64,1540
3.644,1542
3.644,1544
3.638,1547
3.64,1547
3.64,1546
3.644,1544
3.644,1541
3.642,1540
3.638,1540
3.636,1541
3.634,1541
3.632,1540
3.636,1538
3.638,1538
3.64,1537
3.642,1537
3.65,1541
3.65,1542
3.648,1543
3.648,1545
3.646,1546
3.646,1547
3.648,1546
3.648,1544
3.65,1543
3.65,1541
3.648,1540
3.648,1539
3.646,1538
3.644,1538
3.642,1537
3.614,1537
3.612,1538
3.61,1538
3.61,1540
3.608,1541
3.608,1550
3.61,1551
3.61,1552
3.612,1553
3.622,1553
3.626,1551
3.626,1549
3.628,1548
3.628,1543
3.626,1542
3.626,1539
3.622,1537
3.59,1537
3.588,1538
3.586,1538
3.584,1539
3.584,1541
3.586,1541
3.588,1542
3.588,1541
3.59,1540
3.592,1540
3.596,1542
3.596,1544
3.59,1547
3.592,1547
3.592,1546
3.596,1544
3.596,1541
3.594,1540
3.59,1540
3.588,1541
3.586,1541
3.584,1540
3.588,1538
3.59,1538
3.592,1537
3.594,1537
3.602,1541
3.602,1542
3.6,1543
3.6,1545
3.598,1546
3.598,1547
3.6,1546
3.6,1544
3.602,1543
3.602,1541
3.6,1540
3.6,1539
3.598,1538
3.596,1538
3.594,1537
1.65,1537
1.648,1538
1.646,1538
1.646,1540
1.656,1540
1.658,1541
1.658,1542
1.656,1543
1.656,1545
1.654,1546
1.654,1549
1.652,1550
1.652,1553
1.654,1552
1.656,1553
1.656,1552
1.658,1551
1.658,1549
1.66,1548
1.66,1546
1.662,1545
1.662,1543
1.664,1542
1.664,1538
1.662,1537
1.586,1537
1.588,1538
1.586,1539
1.584,1539
1.588,1541
1.588,1542
1.59,1543
1.59,1544
1.592,1545
1.592,1546
1.594,1547
1.594,1548
1.596,1549
1.596,1551
1.598,1552
1.602,1552
1.602,1550
1.606,1548
1.606,1547
1.608,1546
1.608,1545
1.61,1544
1.61,1542
1.614,1540
1.614,1537
1.608,1537
1.608,1538
1.606,1539
1.608,1540
1.606,1541
1.606,1542
1.604,1543
1.604,1544
1.6,1546
1.598,1545
1.598,1544
1.596,1543
1.596,1542
1.594,1541
1.594,1538
1.592,1538
1.59,1537
1.516,1537
1.514,1538
1.514,1540
1.508,1543
1.508,1544
1.506,1545
1.508,1545
1.508,1543
1.512,1541
1.514,1542
1.514,1552
1.516,1553
1.518,1553
1.52,1552
1.52,1538
1.522,1537
1.526,1537
1.528,1538
1.526,1539
1.526,1550
1.528,1551
1.528,1553
1.532,1553
1.532,1551
1.534,1550
1.534,1540
1.536,1539
1.538,1539
1.542,1541
1.542,1553
1.546,1553
1.548,1552
1.548,1541
1.55,1540
1.554,1542
1.554,1546
1.558,1546
1.558,1545
1.56,1544
1.56,1540
1.556,1538
1.554,1538
1.552,1537
1.534,1537
1.532,1538
1.53,1537
1.528,1538
1.526,1537
1.462,1537
1.464,1538
1.462,1539
1.462,1540
1.464,1541
1.464,1553
1.484,1553
1.486,1552
1.488,1553
1.492,1553
1.492,1552
1.494,1551
1.492,1550
1.492,1545
1.494,1544
1.496,1545
1.496,1547
1.5,1549
1.5,1551
1.502,1552
1.504,1551
1.506,1552
1.506,1548
1.502,1546
1.502,1544
1.498,1542
1.498,1541
1.496,1540
1.496,1538
1.494,1537
1.492,1537
1.49,1538
1.488,1537
1.442,1537
1.438,1539
1.438,1544
1.44,1545
1.442,1545
1.446,1547
1.448,1547
1.452,1549
1.448,1551
1.446,1551
1.444,1550
1.438,1550
1.438,1552
1.44,1553
1.454,1553
1.456,1552
1.456,1551
1.458,1550
1.458,1548
1.456,1547
1.456,1546
1.454,1545
1.452,1545
1.444,1541
1.448,1539
1.452,1541
1.456,1541
1.456,1539
1.452,1537
1.396,1537
1.394,1538
1.392,1538
1.392,1540
1.39,1541
1.39,1550
1.392,1551
1.392,1552
1.394,1553
1.404,1553
1.408,1551
1.408,1549
1.41,1548
1.41,1543
1.408,1542
1.408,1539
1.404,1537
1.332,1537
1.334,1538
1.332,1539
1.33,1539
1.334,1541
1.334,1542
1.336,1543
1.336,1544
1.338,1545
1.338,1546
1.34,1547
1.34,1548
1.342,1549
1.342,1551
1.344,1552
1.348,1552
1.348,1550
1.352,1548
1.352,1547
1.354,1546
1.354,1545
1.356,1544
1.356,1542
1.36,1540
1.36,1537
1.354,1537
1.354,1538
1.352,1539
1.354,1540
1.352,1541
1.352,1542
1.35,1543
1.35,1544
1.346,1546
1.344,1545
1.344,1544
1.342,1543
1.342,1542
1.34,1541
1.34,1538
1.338,1538
1.336,1537
1.296,1537
1.294,1538
1.292,1538
1.292,1540
1.296,1540
1.3,1542
1.296,1544
1.298,1545
1.296,1546
1.298,1546
1.302,1548
1.302,1549
1.3,1550
1.298,1550
1.296,1551
1.294,1550
1.292,1551
1.29,1551
1.29,1553
1.302,1553
1.306,1551
1.306,1550
1.308,1549
1.308,1546
1.304,1544
1.306,1543
1.306,1540
1.304,1539
1.304,1538
1.302,1538
1.3,1537
1.24,1537
1.242,1538
1.24,1539
1.24,1540
1.242,1541
1.242,1553
1.262,1553
1.262,1552
1.264,1551
1.264,1549
1.262,1549
1.26,1548
1.258,1549
1.258,1550
1.256,1551
1.252,1551
1.248,1549
1.248,1547
1.25,1546
1.258,1546
1.256,1545
1.258,1544
1.25,1544
1.248,1543
1.248,1541
1.252,1539
1.254,1539
1.258,1541
1.258,1540
1.256,1539
1.25,1539
1.248,1538
1.25,1537
1.258,1537
1.262,1539
1.262,1541
1.262,1538
1.26,1537
1.22,1537
1.216,1539
1.216,1544
1.218,1545
1.22,1545
1.224,1547
1.226,1547
1.23,1549
1.226,1551
1.224,1551
1.222,1550
1.216,1550
1.216,1552
1.218,1553
1.232,1553
1.234,1552
1.234,1551
1.236,1550
1.236,1548
1.234,1547
1.234,1546
1.232,1545
1.23,1545
1.222,1541
1.226,1539
1.23,1541
1.234,1541
1.234,1539
1.23,1537
1.136,1537
1.134,1538
1.132,1538
1.132,1542
1.134,1543
1.134,1544
1.136,1545
1.134,1546
1.132,1546
1.132,1552
1.134,1553
1.138,1553
1.138,1550
1.136,1549
1.14,1547
1.142,1548
1.142,1549
1.144,1550
1.144,1551
1.146,1552
1.148,1552
1.148,1551
1.15,1550
1.15,1549
1.148,1548
1.148,1546
1.146,1545
1.144,1545
1.14,1543
1.14,1542
1.138,1541
1.138,1540
1.14,1539
1.144,1541
1.144,1540
1.142,1539
1.14,1539
1.136,1541
1.148,1547
1.148,1548
1.15,1549
1.148,1550
1.148,1551
1.146,1552
1.144,1551
1.144,1549
1.142,1548
1.142,1547
1.14,1547
1.136,1549
1.138,1550
1.138,1552
1.136,1553
1.132,1551
1.132,1547
1.136,1545
1.134,1544
1.134,1543
1.132,1542
1.132,1539
1.136,1537
1.144,1537
1.148,1539
1.148,1542
1.146,1543
1.148,1543
1.148,1538
1.146,1537
0.984,1537
0.982,1538
0.98,1538
0.98,1540
0.978,1541
0.978,1544
0.98,1544
0.982,1545
0.984,1545
0.988,1547
0.988,1549
0.986,1550
0.984,1550
0.982,1551
0.98,1550
0.978,1551
0.976,1551
0.974,1550
0.976,1551
0.976,1552
0.974,1553
0.988,1553
0.992,1551
0.992,1549
0.994,1548
0.994,1546
0.992,1545
0.992,1544
0.99,1543
0.988,1543
0.984,1541
0.986,1540
0.99,1540
0.992,1539
0.992,1537
0.948,1537
0.946,1538
0.944,1538
0.942,1539
0.942,1541
0.944,1541
0.946,1542
0.946,1541
0.948,1540
0.95,1540
0.954,1542
0.954,1544
0.948,1547
0.95,1547
0.95,1546
0.954,1544
0.954,1541
0.952,1540
0.948,1540
0.946,1541
0.944,1541
0.942,1540
0.946,1538
0.948,1538
0.95,1537
0.952,1537
0.96,1541
0.96,1542
0.958,1543
0.958,1545
0.956,1546
0.956,1547
0.958,1546
0.958,1544
0.96,1543
0.96,1541
0.958,1540
0.958,1539
0.956,1538
0.954,1538
0.952,1537
0.842,1537
0.844,1538
0.842,1539
0.84,1539
0.844,1541
0.844,1542
0.846,1543
0.846,1544
0.848,1545
0.848,1546
0.85,1547
0.85,1548
0.852,1549
0.852,1551
0.854,1552
0.858,1552
0.858,1550
0.862,1548
0.862,1547
0.864,1546
0.864,1545
0.866,1544
0.866,1542
0.87,1540
0.87,1537
0.864,1537
0.864,1538
0.862,1539
0.864,1540
0.862,1541
0.862,1542
0.86,1543
0.86,1544
0.856,1546
0.854,1545
0.854,1544
0.852,1543
0.852,1542
0.85,1541
0.85,1538
0.848,1538
0.846,1537
0.798,1537
0.798,1539
0.796,1540
0.796,1542
0.794,1543
0.794,1545
0.792,1546
0.792,1548
0.79,1549
0.79,1553
0.792,1552
0.794,1553
0.794,1551
0.796,1550
0.796,1548
0.798,1547
0.798,1545
0.8,1544
0.8,1542
0.802,1541
0.802,1537
0.698,1537
0.696,1538
0.694,1538
0.694,1540
0.692,1541
0.692,1550
0.694,1551
0.694,1552
0.696,1553
0.706,1553
0.71,1551
0.71,1549
0.712,1548
0.712,1543
0.71,1542
0.71,1539
0.706,1537
0.628,1537
0.628,1539
0.626,1540
0.626,1542
0.624,1543
0.624,1545
0.622,1546
0.622,1548
0.62,1549
0.62,1551
0.618,1552
0.616,1551
0.616,1545
0.614,1544
0.614,1543
0.612,1542
0.606,1542
0.604,1543
0.602,1543
0.6,1542
0.594,1542
0.592,1543
0.586,1543
0.586,1553
0.59,1553
0.592,1552
0.592,1546
0.594,1545
0.596,1545
0.598,1546
0.598,1552
0.6,1553
0.602,1553
0.604,1552
0.604,1546
0.606,1545
0.608,1545
0.61,1546
0.61,1553
0.614,1553
0.616,1552
0.618,1552
0.62,1553
0.622,1552
0.624,1553
0.624,1551
0.626,1550
0.626,1548
0.628,1547
0.628,1544
0.63,1543
0.63,1542
0.632,1541
0.632,1537
0.532,1537
0.53,1538
0.528,1538
0.528,1540
0.526,1541
0.526,1544
0.528,1544
0.53,1545
0.532,1545
0.536,1547
0.536,1549
0.534,1550
0.532,1550
0.53,1551
0.528,1550
0.526,1551
0.524,1551
0.524,1553
0.536,1553
0.54,1551
0.54,1550
0.542,1549
0.542,1546
0.54,1545
0.54,1544
0.538,1543
0.536,1543
0.532,1541
0.534,1540
0.538,1540
0.54,1539
0.54,1537
0.506,1537
0.504,1538
0.502,1538
0.5,1539
0.5,1541
0.502,1541
0.504,1542
0.504,1541
0.506,1540
0.508,1540
0.512,1542
0.512,1544
0.506,1547
0.508,1547
0.508,1546
0.512,1544
0.512,1541
0.51,1540
0.506,1540
0.504,1541
0.502,1541
0.5,1540
0.504,1538
0.506,1538
0.508,1537
0.51,1537
0.518,1541
0.518,1542
0.516,1543
0.516,1545
0.514,1546
0.514,1547
0.516,1546
0.516,1544
0.518,1543
0.518,1541
0.516,1540
0.516,1539
0.514,1538
0.512,1538
0.51,1537
0.46,1537
0.458,1538
0.456,1538
0.456,1540
0.454,1541
0.454,1550
0.456,1551
0.456,1552
0.458,1553
0.468,1553
0.472,1551
0.472,1549
0.474,1548
0.474,1543
0.472,1542
0.472,1539
0.468,1537
0.44,1537
0.438,1538
0.436,1538
0.436,1540
0.434,1541
0.434,1544
0.436,1544
0.438,1545
0.44,1545
0.444,1547
0.444,1549
0.442,1550
0.44,1550
0.438,1551
0.436,1550
0.434,1551
0.432,1551
0.432,1553
0.444,1553
0.448,1551
0.448,1549
0.45,1548
0.45,1547
0.448,1546
0.448,1545
0.45,1544
0.448,1544
0.446,1543
0.444,1543
0.44,1541
0.442,1540
0.446,1540
0.448,1539
0.448,1537
0.41,1537
0.408,1538
0.406,1538
0.406,1539
0.404,1540
0.404,1541
0.402,1542
0.402,1548
0.404,1549
0.404,1551
0.408,1553
0.424,1553
0.426,1552
0.426,1550
0.424,1549
0.422,1550
0.42,1550
0.418,1551
0.414,1551
0.408,1548
0.408,1543
0.41,1542
0.41,1541
0.412,1540
0.414,1540
0.416,1539
0.418,1540
0.422,1540
0.424,1541
0.428,1541
0.428,1538
0.424,1538
0.422,1537
0.292,1537
0.292,1550
0.294,1551
0.294,1553
0.298,1553
0.298,1551
0.3,1550
0.3,1547
0.302,1546
0.308,1546
0.31,1547
0.31,1552
0.312,1553
0.314,1553
0.316,1552
0.316,1541
0.318,1540
0.318,1539
0.316,1538
0.316,1537
0.31,1537
0.31,1543
0.308,1544
0.302,1544
0.3,1543
0.3,1537
0.298,1538
0.296,1537
0.294,1538
0.276,1537
0.274,1538
0.272,1538
0.272,1540
0.27,1541
0.27,1544
0.272,1544
0.274,1545
0.276,1545
0.28,1547
0.28,1549
0.278,1550
0.276,1550
0.274,1551
0.272,1550
0.27,1551
0.268,1551
0.268,1553
0.28,1553
0.284,1551
0.284,1550
0.286,1549
0.286,1546
0.284,1545
0.284,1544
0.282,1543
0.28,1543
0.276,1541
0.278,1540
0.282,1540
0.284,1539
0.282,1539
0.28,1540
0.276,1540
0.276,1542
0.278,1543
0.28,1543
0.284,1545
0.284,1546
0.286,1547
0.286,1548
0.284,1549
0.284,1550
0.278,1553
0.27,1553
0.268,1552
0.272,1550
0.274,1551
0.276,1550
0.278,1550
0.28,1549
0.28,1547
0.278,1546
0.278,1545
0.276,1545
0.274,1544
0.272,1544
0.27,1543
0.27,1542
0.272,1541
0.272,1539
0.274,1538
0.276,1538
0.278,1537
0.284,1537
0.25,1537
0.248,1538
0.246,1538
0.244,1539
0.244,1541
0.246,1541
0.248,1542
0.248,1541
0.25,1540
0.252,1540
0.256,1542
0.256,1544
0.25,1547
0.252,1547
0.252,1546
0.256,1544
0.256,1541
0.254,1540
0.25,1540
0.248,1541
0.246,1541
0.244,1540
0.248,1538
0.25,1538
0.252,1537
0.254,1537
0.262,1541
0.262,1542
0.26,1543
0.26,1545
0.258,1546
0.258,1547
0.26,1546
0.26,1544
0.262,1543
0.262,1541
0.26,1540
0.26,1539
0.258,1538
0.256,1538
0.254,1537
0.2,1537
0.198,1538
0.196,1538
0.196,1540
0.206,1540
0.208,1541
0.208,1542
0.206,1543
0.206,1545
0.204,1546
0.204,1549
0.202,1550
0.202,1553
0.204,1552
0.206,1553
0.206,1552
0.208,1551
0.208,1549
0.21,1548
0.21,1546
0.212,1545
0.212,1543
0.214,1542
0.214,1538
0.212,1537
0.184,1537
0.184,1538
0.186,1537
0.19,1537
0.192,1538
0.188,1540
0.186,1540
0.188,1540
0.19,1539
0.192,1539
0.192,1537
0.144,1537
0.142,1538
0.14,1538
0.14,1540
0.138,1541
0.138,1550
0.14,1551
0.14,1552
0.142,1553
0.152,1553
0.156,1551
0.156,1549
0.158,1548
0.158,1543
0.156,1542
0.156,1539
0.152,1537
0.322,1359
0.324,1359
0.322,1356
0.324,1356
0.328,1339
0.328,1359
0.33,1358
0.332,1359
0.334,1358
0.336,1359
0.344,1359
0.346,1358
0.348,1359
0.35,1358
0.352,1359
0.354,1358
0.354,1356
0.352,1355
0.352,1343
0.354,1342
0.354,1340
0.352,1339
0.348,1339
0.346,1340
0.344,1339
0.332,1339
0.33,1340
0.31,1339
0.31,1359
0.312,1358
0.314,1359
0.316,1358
0.318,1359
0.318,1339
0.316,1340
0.314,1339
0.312,1340
2.152,1331
2.15,1332
2.148,1332
2.144,1334
2.144,1335
2.142,1336
2.142,1337
2.14,1338
2.14,1339
2.132,1343
2.132,1344
2.13,1345
2.13,1346
2.128,1347
2.128,1348
2.11,1357
2.11,1359
2.108,1360
2.108,1361
2.106,1362
2.106,1363
2.104,1364
2.104,1365
2.1,1367
2.1,1370
2.098,1371
2.098,1373
2.096,1374
2.096,1377
2.094,1378
2.094,1381
2.092,1382
2.092,1385
2.09,1386
2.088,1385
2.088,1375
2.086,1374
2.086,1373
2.084,1373
2.08,1371
2.072,1371
2.07,1372
2.066,1372
2.064,1373
2.05,1373
2.048,1374
2.046,1374
2.042,1376
2.034,1376
2.024,1371
2.02,1371
2.018,1370
2.012,1370
2.01,1371
2.002,1371
1.998,1373
1.996,1373
1.988,1377
1.986,1377
1.984,1376
1.966,1376
1.962,1374
1.946,1374
1.944,1373
1.94,1373
1.938,1372
1.936,1372
1.934,1371
1.932,1371
1.922,1366
1.922,1365
1.92,1364
1.92,1362
1.918,1361
1.918,1360
1.914,1358
1.914,1355
1.912,1354
1.912,1353
1.904,1349
1.904,1347
1.9,1345
1.9,1344
1.898,1343
1.898,1342
1.896,1341
1.896,1339
1.888,1335
1.878,1335
1.876,1336
1.872,1336
1.864,1340
1.864,1341
1.86,1343
1.86,1344
1.858,1345
1.858,1346
1.856,1347
1.856,1348
1.846,1353
1.846,1354
1.83,1362
1.83,1363
1.828,1364
1.828,1365
1.826,1366
1.826,1368
1.824,1369
1.824,1370
1.822,1371
1.822,1372
1.82,1373
1.82,1376
1.818,1377
1.818,1381
1.816,1382
1.814,1382
1.812,1381
1.812,1368
1.81,1367
1.81,1364
1.808,1365
1.806,1365
1.802,1367
1.804,1368
1.804,1369
1.794,1374
1.792,1374
1.79,1375
1.776,1375
1.774,1374
1.76,1374
1.754,1371
1.752,1371
1.748,1369
1.744,1369
1.742,1368
1.728,1368
1.726,1369
1.724,1369
1.722,1370
1.718,1370
1.718,1371
1.712,1374
1.708,1374
1.706,1373
1.7,1373
1.698,1372
1.672,1372
1.67,1371
1.666,1371
1.658,1367
1.658,1366
1.656,1365
1.656,1362
1.65,1359
1.65,1358
1.648,1357
1.648,1355
1.644,1353
1.644,1352
1.642,1351
1.642,1350
1.64,1349
1.64,1348
1.634,1345
1.634,1344
1.632,1343
1.632,1341
1.63,1340
1.63,1339
1.622,1335
1.62,1335
1.616,1333
1.606,1333
1.598,1337
1.598,1338
1.596,1339
1.596,1340
1.594,1341
1.594,1342
1.59,1344
1.59,1345
1.588,1346
1.588,1347
1.574,1354
1.574,1355
1.56,1362
1.56,1364
1.55,1369
1.55,1371
1.548,1372
1.546,1371
1.544,1371
1.542,1370
1.542,1369
1.538,1369
1.536,1370
1.536,1371
1.534,1372
1.532,1372
1.53,1373
1.528,1373
1.524,1375
1.52,1375
1.516,1373
1.506,1373
1.504,1372
1.49,1372
1.484,1369
1.48,1369
1.478,1368
1.462,1368
1.46,1369
1.45,1369
1.45,1370
1.444,1373
1.442,1373
1.44,1374
1.434,1374
1.432,1375
1.428,1375
1.426,1374
1.414,1374
1.412,1373
1.408,1373
1.406,1372
1.4,1372
1.398,1371
1.388,1371
1.386,1372
1.384,1372
1.382,1371
1.38,1371
1.372,1367
1.37,1367
1.366,1365
1.366,1363
1.364,1362
1.364,1361
1.36,1359
1.36,1358
1.358,1357
1.358,1356
1.356,1355
1.356,1353
1.352,1351
1.352,1349
1.35,1348
1.35,1347
1.348,1346
1.348,1345
1.344,1343
1.344,1342
1.338,1339
1.338,1338
1.336,1337
1.336,1336
1.332,1334
1.33,1334
1.328,1333
1.322,1333
1.32,1332
1.318,1333
1.314,1333
1.308,1336
1.308,1337
1.302,1340
1.302,1341
1.3,1342
1.3,1343
1.288,1349
1.288,1350
1.286,1351
1.286,1352
1.284,1353
1.284,1354
1.282,1355
1.28,1355
1.272,1359
1.272,1360
1.27,1361
1.27,1362
1.268,1363
1.268,1364
1.262,1367
1.262,1369
1.26,1370
1.26,1372
1.258,1373
1.258,1382
1.256,1383
1.254,1382
1.254,1377
1.252,1376
1.252,1374
1.226,1374
1.224,1373
1.222,1374
1.206,1374
1.202,1372
1.2,1372
1.196,1370
1.188,1370
1.184,1368
1.178,1368
1.176,1369
1.166,1369
1.164,1370
1.16,1370
1.154,1373
1.15,1373
1.148,1374
1.146,1373
1.144,1374
1.138,1374
1.136,1373
1.13,1373
1.128,1374
1.12,1374
1.118,1373
1.11,1373
1.108,1374
1.106,1374
1.104,1373
1.094,1373
1.092,1372
1.09,1372
1.088,1371
1.086,1371
1.084,1370
1.078,1370
1.076,1369
1.074,1369
1.066,1365
1.066,1364
1.064,1363
1.064,1362
1.062,1361
1.062,1360
1.06,1359
1.06,1358
1.058,1357
1.058,1356
1.056,1355
1.056,1354
1.054,1353
1.054,1352
1.052,1351
1.052,1350
1.05,1349
1.05,1348
1.048,1347
1.048,1346
1.046,1345
1.046,1344
1.042,1342
1.042,1341
1.04,1340
1.04,1338
1.034,1335
1.032,1335
1.03,1334
1.03,1333
1.028,1333
1.026,1332
1.018,1332
1.016,1333
1.014,1333
1.006,1337
1.006,1338
1.002,1340
1.002,1341
0.998,1343
0.998,1344
0.996,1345
0.996,1346
0.99,1349
0.99,1350
0.984,1353
0.982,1353
0.982,1354
0.98,1355
0.98,1356
0.974,1359
0.974,1360
0.972,1361
0.972,1362
0.968,1364
0.968,1366
0.966,1367
0.966,1369
0.964,1370
0.964,1372
0.962,1373
0.962,1374
0.96,1375
0.96,1377
0.958,1378
0.958,1386
0.956,1387
0.956,1389
0.956,1388
0.958,1387
0.958,1378
0.96,1377
0.96,1376
0.962,1375
0.962,1374
0.964,1373
0.964,1370
0.966,1369
0.966,1367
0.968,1366
0.968,1365
0.972,1363
0.972,1361
0.98,1357
0.98,1355
0.986,1352
0.988,1352
0.988,1351
0.996,1347
0.996,1345
1.002,1342
1.002,1341
1.004,1340
1.004,1339
1.018,1332
1.024,1332
1.026,1333
1.028,1333
1.03,1334
1.03,1335
1.032,1335
1.04,1339
1.04,1340
1.042,1341
1.042,1343
1.046,1345
1.046,1346
1.048,1347
1.048,1348
1.052,1350
1.052,1352
1.054,1353
1.054,1354
1.056,1355
1.056,1356
1.06,1358
1.06,1360
1.062,1361
1.062,1362
1.064,1363
1.064,1364
1.066,1365
1.066,1366
1.072,1369
1.076,1369
1.078,1370
1.082,1370
1.084,1371
1.086,1371
1.088,1372
1.092,1372
1.094,1373
1.104,1373
1.106,1374
1.11,1374
1.112,1373
1.118,1373
1.12,1374
1.128,1374
1.13,1373
1.136,1373
1.138,1374
1.144,1374
1.146,1373
1.148,1374
1.15,1373
1.156,1373
1.162,1370
1.164,1370
1.166,1369
1.178,1369
1.18,1368
1.182,1368
1.186,1370
1.194,1370
1.198,1372
1.2,1372
1.202,1373
1.204,1373
1.206,1374
1.222,1374
1.224,1373
1.226,1374
1.25,1374
1.252,1375
1.252,1377
1.254,1378
1.254,1383
1.258,1383
1.258,1373
1.26,1372
1.26,1370
1.262,1369
1.262,1368
1.268,1365
1.268,1363
1.272,1361
1.272,1360
1.282,1355
1.284,1355
1.284,1354
1.286,1353
1.286,1351
1.3,1344
1.3,1342
1.308,1338
1.308,1337
1.316,1333
1.318,1333
1.32,1332
1.322,1333
1.328,1333
1.336,1337
1.336,1338
1.338,1339
1.338,1340
1.344,1343
1.344,1344
1.35,1347
1.35,1349
1.352,1350
1.352,1352
1.356,1354
1.356,1355
1.358,1356
1.358,1358
1.36,1359
1.36,1360
1.364,1362
1.364,1363
1.366,1364
1.366,1366
1.368,1367
1.37,1367
1.378,1371
1.382,1371
1.384,1372
1.386,1372
1.388,1371
1.398,1371
1.4,1372
1.406,1372
1.408,1373
1.41,1373
1.412,1374
1.424,1374
1.426,1375
1.432,1375
1.434,1374
1.44,1374
1.442,1373
1.446,1373
1.45,1371
1.45,1370
1.452,1369
1.462,1369
1.464,1368
1.478,1368
1.48,1369
1.482,1369
1.488,1372
1.504,1372
1.506,1373
1.514,1373
1.518,1375
1.524,1375
1.526,1374
1.528,1374
1.532,1372
1.536,1372
1.536,1371
1.54,1369
1.542,1370
1.542,1371
1.544,1372
1.544,1379
1.548,1379
1.548,1373
1.55,1372
1.55,1370
1.558,1366
1.558,1365
1.56,1364
1.56,1363
1.574,1356
1.574,1355
1.588,1348
1.588,1347
1.59,1346
1.59,1345
1.592,1344
1.592,1343
1.596,1341
1.596,1340
1.598,1339
1.598,1338
1.608,1333
1.614,1333
1.618,1335
1.62,1335
1.63,1340
1.63,1341
1.632,1342
1.632,1343
1.634,1344
1.634,1346
1.642,1350
1.642,1352
1.644,1353
1.644,1354
1.648,1356
1.648,1357
1.65,1358
1.65,1360
1.656,1363
1.656,1365
1.658,1366
1.658,1368
1.662,1370
1.664,1370
1.666,1371
1.67,1371
1.672,1372
1.698,1372
1.7,1373
1.706,1373
1.708,1374
1.714,1374
1.718,1372
1.718,1371
1.72,1370
1.722,1370
1.724,1369
1.728,1369
1.73,1368
1.742,1368
1.744,1369
1.746,1369
1.75,1371
1.752,1371
1.758,1374
1.774,1374
1.776,1375
1.792,1375
1.794,1374
1.796,1374
1.802,1371
1.802,1370
1.804,1369
1.804,1367
1.808,1365
1.81,1366
1.81,1367
1.812,1368
1.812,1382
1.814,1383
1.816,1383
1.818,1382
1.818,1377
1.82,1376
1.82,1373
1.824,1371
1.824,1369
1.826,1368
1.826,1366
1.83,1364
1.83,1363
1.846,1355
1.846,1354
1.856,1349
1.856,1347
1.86,1345
1.86,1344
1.864,1342
1.864,1341
1.874,1336
1.876,1336
1.878,1335
1.886,1335
1.896,1340
1.896,1341
1.898,1342
1.898,1343
1.9,1344
1.9,1346
1.904,1348
1.904,1350
1.912,1354
1.912,1355
1.914,1356
1.914,1358
1.916,1359
1.916,1360
1.918,1361
1.918,1362
1.92,1363
1.92,1364
1.922,1365
1.922,1367
1.93,1371
1.934,1371
1.938,1373
1.944,1373
1.946,1374
1.96,1374
1.962,1375
1.964,1375
1.966,1376
1.982,1376
1.984,1377
1.99,1377
1.998,1373
2.0,1373
2.004,1371
2.01,1371
2.012,1370
2.018,1370
2.02,1371
2.022,1371
2.032,1376
2.044,1376
2.05,1373
2.064,1373
2.066,1372
2.07,1372
2.072,1371
2.078,1371
2.082,1373
2.084,1373
2.086,1374
2.086,1375
2.088,1376
2.088,1386
2.092,1386
2.092,1383
2.094,1382
2.094,1378
2.096,1377
2.096,1374
2.098,1373
2.098,1371
2.1,1370
2.1,1368
2.104,1366
2.104,1365
2.106,1364
2.106,1362
2.108,1361
2.108,1360
2.11,1359
2.11,1358
2.128,1349
2.128,1348
2.13,1347
2.13,1346
2.132,1345
2.132,1344
2.14,1340
2.14,1339
2.142,1338
2.142,1337
2.144,1336
2.144,1335
2.152,1331
2.16,1331
2.162,1332
2.164,1332
2.166,1333
2.168,1333
2.172,1335
2.172,1336
2.174,1337
2.174,1338
2.18,1341
2.18,1343
2.186,1346
2.186,1348
2.19,1350
2.19,1351
2.192,1352
2.192,1355
2.196,1357
2.196,1358
2.198,1359
2.198,1361
2.2,1362
2.2,1363
2.202,1364
2.202,1365
2.206,1367
2.22,1367
2.222,1368
2.224,1368
2.226,1369
2.228,1369
2.23,1370
2.242,1370
2.244,1371
2.246,1371
2.248,1372
2.268,1372
2.27,1371
2.278,1371
2.28,1372
2.294,1372
2.296,1371
2.304,1371
2.31,1368
2.312,1368
2.314,1367
2.318,1367
2.32,1366
2.322,1366
2.324,1367
2.332,1367
2.34,1371
2.344,1371
2.346,1372
2.348,1372
2.35,1373
2.362,1373
2.364,1372
2.376,1372
2.378,1373
2.382,1373
2.384,1372
2.388,1374
2.394,1374
2.396,1375
2.396,1380
2.398,1381
2.4,1381
2.402,1380
2.402,1371
2.404,1370
2.404,1368
2.41,1365
2.41,1364
2.412,1363
2.412,1362
2.418,1359
2.418,1358
2.438,1348
2.438,1346
2.442,1344
2.442,1342
2.452,1337
2.452,1336
2.458,1333
2.462,1333
2.464,1332
2.468,1332
2.47,1333
2.472,1333
2.486,1340
2.486,1342
2.488,1343
2.488,1344
2.494,1347
2.494,1350
2.496,1351
2.496,1352
2.5,1354
2.5,1355
2.502,1356
2.502,1357
2.506,1359
2.506,1360
2.508,1361
2.508,1362
2.51,1363
2.51,1365
2.52,1370
2.524,1370
2.526,1371
2.534,1371
2.536,1372
2.546,1372
2.548,1373
2.554,1373
2.556,1374
2.562,1374
2.564,1373
2.576,1373
2.578,1374
2.58,1373
2.582,1374
2.588,1374
2.59,1373
2.594,1373
2.596,1372
2.604,1372
2.612,1368
2.614,1368
2.616,1367
2.618,1367
2.62,1366
2.622,1366
2.624,1367
2.632,1367
2.634,1368
2.636,1368
2.64,1370
2.64,1371
2.646,1371
2.648,1372
2.652,1372
2.654,1373
2.674,1373
2.676,1372
2.688,1372
2.692,1370
2.694,1370
2.696,1371
2.696,1377
2.698,1378
2.698,1379
2.698,1377
2.696,1376
2.696,1370
2.69,1370
2.686,1372
2.676,1372
2.674,1373
2.656,1373
2.654,1372
2.648,1372
2.646,1371
2.642,1371
2.64,1370
2.64,1369
2.638,1368
2.634,1368
2.632,1367
2.624,1367
2.622,1366
2.62,1366
2.618,1367
2.614,1367
2.61,1369
2.608,1369
2.602,1372
2.596,1372
2.594,1373
2.59,1373
2.588,1374
2.582,1374
2.58,1373
2.578,1374
2.576,1373
2.564,1373
2.562,1374
2.556,1374
2.554,1373
2.548,1373
2.546,1372
2.536,1372
2.534,1371
2.526,1371
2.524,1370
2.522,1370
2.51,1364
2.51,1363
2.508,1362
2.508,1360
2.504,1358
2.504,1357
2.502,1356
2.502,1355
2.5,1354
2.5,1353
2.494,1350
2.494,1347
2.492,1346
2.492,1345
2.486,1342
2.486,1340
2.484,1339
2.484,1338
2.474,1333
2.47,1333
2.468,1332
2.464,1332
2.462,1333
2.456,1333
2.452,1335
2.452,1336
2.444,1340
2.444,1341
2.442,1342
2.442,1343
2.438,1345
2.438,1347
2.418,1357
2.418,1358
2.412,1361
2.412,1362
2.41,1363
2.41,1364
2.406,1366
2.406,1367
2.404,1368
2.404,1370
2.402,1371
2.402,1379
2.4,1380
2.398,1380
2.396,1379
2.396,1374
2.39,1374
2.388,1373
2.386,1373
2.384,1372
2.382,1373
2.378,1373
2.376,1372
2.364,1372
2.362,1373
2.352,1373
2.35,1372
2.346,1372
2.344,1371
2.342,1371
2.336,1368
2.334,1368
2.332,1367
2.324,1367
2.322,1366
2.32,1366
2.318,1367
2.312,1367
2.308,1369
2.306,1369
2.302,1371
2.296,1371
2.294,1372
2.282,1372
2.28,1371
2.27,1371
2.268,1372
2.25,1372
2.248,1371
2.246,1371
2.244,1370
2.232,1370
2.23,1369
2.228,1369
2.226,1368
2.222,1368
2.22,1367
2.208,1367
2.202,1364
2.202,1363
2.2,1362
2.2,1361
2.198,1360
2.198,1359
2.196,1358
2.196,1356
2.192,1354
2.192,1352
2.19,1351
2.19,1349
2.186,1347
2.186,1346
2.184,1345
2.184,1344
2.18,1342
2.18,1340
2.174,1337
2.174,1336
2.172,1335
2.172,1334
2.17,1333
2.166,1333
2.162,1331
4.212,1330
4.206,1333
4.204,1333
4.198,1336
4.198,1337
4.196,1338
4.196,1340
4.19,1343
4.19,1345
4.182,1349
4.182,1350
4.18,1351
4.18,1352
4.178,1353
4.176,1353
4.17,1356
4.17,1357
4.168,1358
4.168,1359
4.164,1361
4.164,1362
4.16,1364
4.16,1365
4.158,1366
4.158,1367
4.156,1368
4.156,1369
4.152,1371
4.152,1374
4.15,1375
4.15,1380
4.148,1381
4.148,1383
4.148,1382
4.15,1381
4.15,1375
4.152,1374
4.152,1372
4.156,1370
4.156,1369
4.158,1368
4.158,1366
4.164,1363
4.164,1362
4.166,1361
4.166,1360
4.17,1358
4.17,1357
4.178,1353
4.18,1353
4.18,1352
4.182,1351
4.182,1350
4.188,1347
4.188,1346
4.19,1345
4.19,1344
4.194,1342
4.194,1341
4.196,1340
4.196,1339
4.198,1338
4.198,1337
4.206,1333
4.208,1333
4.214,1330
4.218,1330
4.224,1333
4.224,1334
4.23,1337
4.23,1338
4.234,1340
4.234,1341
4.236,1342
4.236,1343
4.24,1345
4.24,1347
4.242,1348
4.238,1350
4.234,1348
4.234,1347
4.23,1345
4.23,1344
4.226,1342
4.226,1341
4.224,1340
4.224,1339
4.218,1336
4.216,1336
4.214,1335
4.212,1335
4.204,1339
4.204,1341
4.202,1342
4.202,1343
4.196,1346
4.196,1347
4.192,1349
4.192,1350
4.188,1352
4.188,1353
4.186,1354
4.186,1355
4.18,1358
4.178,1358
4.174,1360
4.174,1361
4.172,1362
4.172,1363
4.168,1365
4.168,1366
4.166,1367
4.166,1368
4.162,1370
4.162,1372
4.16,1373
4.16,1374
4.158,1375
4.158,1377
4.156,1378
4.156,1381
4.154,1382
4.154,1386
4.152,1387
4.152,1393
4.15,1394
4.15,1395
4.148,1396
4.146,1396
4.142,1394
4.142,1391
4.14,1390
4.142,1389
4.14,1388
4.14,1385
4.138,1384
4.138,1376
4.136,1377
4.134,1376
4.132,1377
4.128,1377
4.126,1378
4.124,1378
4.122,1379
4.106,1379
4.104,1378
4.092,1378
4.09,1377
4.086,1377
4.082,1375
4.08,1375
4.076,1373
4.072,1373
4.07,1372
4.064,1372
4.062,1373
4.058,1373
4.05,1377
4.044,1377
4.042,1378
4.036,1378
4.034,1379
4.028,1379
4.026,1378
4.024,1378
4.022,1379
4.018,1379
4.016,1378
4.012,1378
4.01,1377
4.002,1377
4.0,1376
3.996,1376
3.994,1375
3.992,1375
3.98,1369
3.978,1369
3.966,1363
3.966,1361
3.96,1358
3.96,1357
3.958,1356
3.958,1354
3.956,1353
3.956,1352
3.952,1350
3.952,1348
3.95,1347
3.95,1346
3.948,1345
3.948,1344
3.94,1340
3.94,1339
3.938,1338
3.934,1338
3.932,1339
3.93,1339
3.924,1342
3.922,1342
3.92,1343
3.92,1344
3.916,1346
3.916,1348
3.914,1349
3.914,1350
3.906,1354
3.906,1355
3.9,1358
3.9,1359
3.896,1361
3.894,1361
3.89,1363
3.89,1364
3.888,1365
3.888,1366
3.884,1368
3.884,1369
3.876,1373
3.874,1373
3.874,1375
3.872,1376
3.872,1385
3.87,1386
3.87,1389
3.868,1390
3.868,1392
3.866,1393
3.866,1394
3.864,1395
3.862,1395
3.86,1394
3.86,1393
3.858,1392
3.858,1386
3.856,1385
3.856,1382
3.854,1381
3.852,1381
3.85,1380
3.844,1380
3.842,1379
3.836,1379
3.834,1378
3.824,1378
3.822,1379
3.82,1379
3.818,1378
3.816,1379
3.814,1379
3.812,1378
3.81,1378
3.806,1376
3.802,1376
3.796,1373
3.784,1373
3.782,1374
3.78,1374
3.778,1375
3.774,1375
3.766,1379
3.762,1379
3.76,1378
3.752,1378
3.748,1380
3.736,1380
3.732,1378
3.716,1378
3.714,1377
3.702,1377
3.7,1376
3.696,1376
3.694,1375
3.692,1375
3.69,1374
3.688,1374
3.686,1373
3.684,1373
3.682,1372
3.68,1372
3.678,1371
3.678,1370
3.674,1368
3.674,1367
3.666,1363
3.666,1361
3.664,1360
3.664,1357
3.662,1356
3.662,1355
3.658,1353
3.658,1352
3.656,1351
3.656,1349
3.654,1348
3.654,1347
3.652,1346
3.652,1344
3.646,1341
3.646,1340
3.644,1340
3.638,1337
3.63,1337
3.628,1338
3.626,1338
3.624,1339
3.624,1340
3.622,1341
3.622,1342
3.62,1343
3.62,1344
3.616,1346
3.616,1347
3.608,1351
3.608,1352
3.6,1356
3.6,1357
3.592,1361
3.592,1362
3.582,1367
3.582,1368
3.58,1369
3.58,1370
3.576,1372
3.576,1376
3.574,1377
3.574,1387
3.572,1388
3.572,1395
3.566,1398
3.564,1398
3.562,1397
3.562,1394
3.56,1393
3.56,1390
3.558,1389
3.558,1382
3.552,1379
3.552,1378
3.548,1378
3.546,1377
3.544,1378
3.542,1377
3.538,1377
3.536,1376
3.528,1376
3.526,1377
3.522,1377
3.52,1376
3.51,1376
3.508,1375
3.506,1375
3.502,1373
3.502,1372
3.5,1371
3.498,1372
3.496,1371
3.484,1371
3.482,1372
3.478,1372
3.47,1376
3.468,1376
3.466,1377
3.464,1377
3.462,1378
3.46,1377
3.458,1377
3.456,1376
3.45,1376
3.448,1375
3.44,1375
3.436,1377
3.434,1377
3.432,1378
3.43,1378
3.428,1377
3.424,1377
3.422,1376
3.412,1376
3.41,1375
3.392,1375
3.39,1374
3.384,1374
3.378,1371
3.376,1371
3.364,1365
3.364,1364
3.362,1363
3.362,1362
3.36,1361
3.36,1360
3.358,1359
3.358,1358
3.356,1357
3.356,1356
3.354,1355
3.354,1354
3.352,1353
3.352,1352
3.35,1351
3.35,1349
3.348,1348
3.348,1346
3.342,1343
3.342,1342
3.338,1340
3.338,1338
3.332,1335
3.332,1334
3.32,1334
3.32,1335
3.312,1339
3.312,1340
3.308,1342
3.308,1343
3.304,1345
3.304,1346
3.302,1347
3.302,1348
3.294,1352
3.294,1353
3.286,1357
3.286,1358
3.284,1359
3.284,1360
3.282,1361
3.282,1362
3.28,1363
3.28,1365
3.278,1366
3.278,1367
3.274,1369
3.274,1370
3.272,1371
3.272,1374
3.27,1375
3.27,1378
3.268,1379
3.268,1384
3.266,1385
3.266,1389
3.264,1390
3.264,1392
3.266,1393
3.264,1394
3.264,1398
3.262,1399
3.262,1400
3.26,1401
3.258,1401
3.254,1399
3.254,1397
3.252,1396
3.252,1387
3.25,1386
3.25,1378
3.244,1375
3.242,1375
3.24,1376
3.202,1376
3.2,1375
3.196,1375
3.194,1374
3.192,1374
3.19,1373
3.188,1373
3.186,1372
3.172,1372
3.168,1374
3.168,1375
3.164,1377
3.162,1377
3.16,1378
3.152,1378
3.15,1377
3.148,1378
3.122,1378
3.12,1377
3.116,1377
3.114,1376
3.108,1376
3.106,1375
3.102,1375
3.1,1374
3.098,1374
3.096,1373
3.094,1373
3.088,1370
3.088,1369
3.086,1368
3.086,1367
3.082,1365
3.082,1363
3.08,1362
3.08,1360
3.074,1357
3.074,1356
3.072,1355
3.072,1353
3.066,1350
3.066,1348
3.062,1346
3.062,1345
3.058,1343
3.058,1341
3.056,1341
3.052,1339
3.048,1339
3.046,1338
3.044,1339
3.042,1339
3.038,1341
3.038,1342
3.034,1344
3.034,1345
3.03,1347
3.03,1348
3.028,1349
3.028,1350
3.01,1359
3.01,1360
3.008,1361
3.008,1362
3.002,1365
3.002,1366
3.0,1367
3.0,1368
2.998,1369
2.998,1370
2.996,1371
2.996,1373
2.994,1374
2.994,1375
2.992,1376
2.992,1378
2.99,1379
2.99,1384
2.988,1385
2.988,1387
2.986,1388
2.986,1391
2.984,1392
2.984,1393
2.982,1394
2.98,1394
2.978,1393
2.978,1392
2.976,1391
2.976,1387
2.974,1386
2.974,1376
2.96,1376
2.958,1377
2.93,1377
2.928,1376
2.922,1376
2.916,1373
2.914,1373
2.912,1372
2.908,1372
2.906,1371
2.894,1371
2.882,1377
2.88,1377
2.878,1378
2.87,1378
2.868,1377
2.848,1377
2.844,1375
2.822,1375
2.818,1373
2.812,1373
2.808,1371
2.808,1370
2.806,1369
2.806,1368
2.804,1367
2.804,1366
2.802,1365
2.802,1364
2.8,1363
2.8,1362
2.798,1361
2.798,1360
2.794,1358
2.794,1357
2.792,1356
2.792,1354
2.79,1353
2.79,1352
2.788,1351
2.788,1350
2.786,1349
2.786,1348
2.784,1347
2.784,1345
2.778,1342
2.778,1341
2.776,1340
2.776,1339
2.772,1337
2.77,1337
2.768,1336
2.766,1336
2.764,1337
2.762,1337
2.76,1338
2.758,1338
2.756,1339
2.756,1341
2.754,1342
2.754,1343
2.748,1346
2.748,1347
2.74,1351
2.74,1352
2.738,1353
2.738,1355
2.71,1369
2.71,1371
2.708,1372
2.708,1380
2.706,1381
2.706,1389
2.704,1390
2.704,1391
2.7,1393
2.698,1393
2.696,1392
2.696,1391
2.694,1390
2.694,1386
2.692,1385
2.692,1380
2.69,1380
2.688,1379
2.686,1379
2.684,1378
2.682,1378
2.68,1377
2.65,1377
2.648,1376
2.64,1376
2.634,1373
2.634,1372
2.63,1372
2.628,1371
2.626,1371
2.624,1370
2.618,1370
2.606,1376
2.6,1376
2.598,1377
2.592,1377
2.59,1378
2.566,1378
2.564,1377
2.56,1377
2.558,1378
2.55,1378
2.548,1377
2.538,1377
2.536,1376
2.53,1376
2.528,1375
2.52,1375
2.518,1374
2.516,1374
2.514,1373
2.514,1372
2.51,1370
2.51,1369
2.502,1365
2.502,1362
2.498,1360
2.498,1359
2.494,1357
2.494,1356
2.492,1355
2.492,1354
2.488,1352
2.488,1350
2.486,1349
2.486,1348
2.48,1345
2.48,1343
2.478,1342
2.478,1340
2.476,1340
2.468,1336
2.462,1336
2.456,1339
2.456,1340
2.45,1343
2.45,1344
2.446,1346
2.446,1347
2.444,1348
2.444,1350
2.438,1353
2.436,1353
2.426,1358
2.426,1359
2.424,1360
2.424,1361
2.42,1363
2.42,1364
2.412,1368
2.412,1370
2.41,1371
2.41,1373
2.408,1374
2.408,1382
2.406,1383
2.406,1387
2.404,1388
2.404,1397
2.4,1399
2.398,1399
2.396,1398
2.396,1397
2.394,1396
2.394,1393
2.392,1392
2.392,1390
2.394,1389
2.394,1387
2.392,1386
2.392,1384
2.39,1383
2.39,1381
2.384,1378
2.382,1378
2.38,1377
2.374,1377
2.372,1376
2.368,1376
2.366,1377
2.35,1377
2.348,1376
2.344,1376
2.342,1375
2.34,1375
2.334,1372
2.332,1372
2.328,1370
2.32,1370
2.318,1371
2.314,1371
2.306,1375
2.3,1375
2.298,1376
2.274,1376
2.272,1375
2.268,1375
2.266,1376
2.26,1376
2.258,1377
2.252,1377
2.25,1376
2.248,1376
2.246,1375
2.242,1375
2.24,1374
2.228,1374
2.226,1373
2.224,1373
2.222,1372
2.218,1372
2.216,1371
2.206,1371
2.194,1365
2.194,1364
2.192,1363
2.192,1362
2.19,1361
2.19,1360
2.188,1359
2.188,1356
2.184,1354
2.184,1352
2.18,1350
2.18,1349
2.178,1348
2.178,1346
2.172,1343
2.172,1341
2.168,1339
2.168,1338
2.166,1337
2.162,1337
2.158,1335
2.152,1335
2.152,1336
2.148,1338
2.148,1340
2.146,1341
2.146,1342
2.138,1346
2.138,1347
2.136,1348
2.136,1350
2.13,1353
2.128,1353
2.122,1356
2.122,1357
2.114,1361
2.114,1363
2.112,1364
2.112,1366
2.108,1368
2.108,1369
2.106,1370
2.106,1372
2.104,1373
2.104,1376
2.102,1377
2.102,1379
2.1,1380
2.1,1384
2.098,1385
2.098,1391
2.096,1392
2.098,1393
2.096,1394
2.096,1398
2.094,1399
2.094,1400
2.092,1401
2.09,1401
2.086,1399
2.086,1395
2.084,1394
2.084,1390
2.082,1389
2.082,1378
2.08,1378
2.078,1377
2.052,1377
2.048,1379
2.046,1379
2.044,1380
2.032,1380
2.03,1379
2.028,1379
2.02,1375
2.016,1375
2.014,1374
2.012,1375
2.006,1375
2.004,1376
2.002,1376
2.0,1377
1.998,1377
1.998,1378
1.994,1380
1.992,1380
1.99,1381
1.986,1381
1.984,1380
1.978,1380
1.976,1381
1.972,1381
1.97,1380
1.966,1380
1.964,1379
1.96,1379
1.958,1378
1.946,1378
1.944,1377
1.936,1377
1.932,1375
1.93,1375
1.916,1368
1.916,1367
1.914,1366
1.914,1364
1.91,1362
1.91,1361
1.908,1360
1.908,1358
1.906,1357
1.906,1356
1.9,1353
1.9,1352
1.898,1351
1.898,1350
1.896,1349
1.896,1348
1.892,1346
1.892,1345
1.89,1344
1.89,1342
1.886,1340
1.886,1339
1.876,1339
1.874,1340
1.874,1341
1.87,1343
1.87,1344
1.864,1347
1.864,1349
1.862,1350
1.862,1351
1.856,1354
1.854,1354
1.852,1355
1.852,1356
1.838,1363
1.838,1364
1.834,1366
1.834,1368
1.832,1369
1.832,1371
1.828,1373
1.828,1375
1.826,1376
1.826,1378
1.824,1379
1.824,1383
1.822,1384
1.822,1388
1.82,1389
1.82,1393
1.818,1394
1.818,1395
1.814,1397
1.81,1395
1.81,1394
1.808,1393
1.808,1385
1.806,1384
1.806,1377
1.796,1377
1.792,1379
1.77,1379
1.768,1378
1.766,1379
1.764,1379
1.762,1378
1.758,1378
1.752,1375
1.75,1375
1.746,1373
1.74,1373
1.738,1372
1.73,1372
1.724,1375
1.722,1375
1.716,1378
1.71,1378
1.708,1377
1.702,1377
1.7,1376
1.674,1376
1.672,1375
1.664,1375
1.662,1374
1.66,1374
1.654,1371
1.654,1370
1.65,1368
1.65,1366
1.648,1365
1.648,1363
1.642,1360
1.642,1358
1.64,1357
1.64,1356
1.638,1355
1.638,1354
1.634,1352
1.634,1351
1.632,1350
1.632,1349
1.628,1347
1.628,1346
1.624,1344
1.624,1342
1.622,1341
1.622,1340
1.62,1339
1.618,1339
1.614,1337
1.608,1337
1.606,1338
1.606,1339
1.604,1340
1.604,1341
1.6,1343
1.6,1344
1.598,1345
1.598,1347
1.588,1352
1.588,1353
1.58,1357
1.58,1358
1.574,1361
1.572,1361
1.568,1363
1.568,1364
1.566,1365
1.566,1367
1.562,1369
1.56,1369
1.556,1371
1.556,1374
1.554,1375
1.554,1382
1.552,1383
1.552,1388
1.55,1389
1.55,1392
1.548,1393
1.544,1393
1.542,1392
1.542,1391
1.54,1390
1.54,1387
1.538,1386
1.538,1379
1.53,1379
1.528,1380
1.526,1380
1.524,1379
1.52,1379
1.518,1378
1.504,1378
1.5,1376
1.488,1376
1.482,1373
1.478,1373
1.476,1372
1.466,1372
1.462,1374
1.454,1374
1.448,1377
1.444,1377
1.442,1378
1.436,1378
1.434,1379
1.426,1379
1.424,1378
1.41,1378
1.408,1377
1.406,1377
1.404,1376
1.382,1376
1.38,1375
1.378,1375
1.374,1373
1.372,1373
1.358,1366
1.358,1364
1.356,1363
1.356,1361
1.35,1358
1.35,1355
1.346,1353
1.346,1352
1.344,1351
1.344,1350
1.342,1349
1.342,1348
1.338,1346
1.338,1345
1.336,1344
1.336,1343
1.33,1340
1.33,1339
1.328,1338
1.328,1337
1.322,1337
1.32,1336
1.318,1336
1.316,1337
1.316,1339
1.31,1342
1.308,1342
1.308,1344
1.304,1346
1.304,1347
1.294,1352
1.294,1353
1.292,1354
1.292,1356
1.284,1360
1.282,1360
1.278,1362
1.278,1363
1.276,1364
1.276,1365
1.272,1367
1.272,1368
1.268,1370
1.268,1372
1.266,1373
1.266,1375
1.264,1376
1.264,1385
1.262,1386
1.262,1391
1.26,1392
1.26,1396
1.258,1397
1.258,1398
1.256,1399
1.254,1399
1.252,1398
1.252,1397
1.25,1396
1.25,1385
1.248,1384
1.248,1382
1.246,1381
1.244,1381
1.24,1379
1.24,1378
1.238,1379
1.23,1379
1.228,1378
1.218,1378
1.216,1379
1.214,1378
1.206,1378
1.204,1377
1.2,1377
1.196,1375
1.194,1375
1.192,1374
1.184,1374
1.182,1373
1.17,1373
1.168,1374
1.166,1374
1.16,1377
1.156,1377
1.154,1378
1.138,1378
1.136,1377
1.13,1377
1.128,1378
1.12,1378
1.118,1377
1.114,1377
1.112,1378
1.106,1378
1.104,1377
1.092,1377
1.09,1376
1.088,1376
1.086,1375
1.084,1375
1.082,1374
1.078,1374
1.076,1373
1.07,1373
1.064,1370
1.064,1369
1.058,1366
1.058,1365
1.056,1364
1.056,1362
1.052,1360
1.052,1358
1.05,1357
1.05,1356
1.048,1355
1.048,1354
1.044,1352
1.044,1350
1.042,1349
1.042,1348
1.04,1347
1.04,1346
1.034,1343
1.034,1341
1.024,1336
1.018,1336
1.018,1337
1.012,1340
1.012,1341
1.01,1342
1.01,1343
1.004,1346
1.004,1347
1.002,1348
1.002,1349
1.0,1350
1.0,1351
0.98,1361
0.98,1363
0.978,1364
0.978,1365
0.974,1367
0.974,1369
0.972,1370
0.972,1372
0.97,1373
0.97,1374
0.968,1375
0.968,1376
0.966,1377
0.966,1379
0.964,1380
0.964,1388
0.962,1389
0.962,1394
0.96,1395
0.96,1401
0.958,1402
0.958,1403
0.956,1404
0.954,1404
0.95,1402
0.95,1400
0.948,1399
0.948,1392
0.946,1391
0.946,1381
0.94,1378
0.912,1378
0.91,1377
0.908,1378
0.898,1378
0.896,1377
0.892,1377
0.888,1375
0.886,1375
0.884,1374
0.882,1374
0.878,1372
0.87,1372
0.868,1373
0.864,1373
0.864,1374
0.862,1375
0.862,1376
0.856,1379
0.854,1379
0.852,1380
0.844,1380
0.842,1379
0.834,1379
0.832,1378
0.824,1378
0.822,1377
0.814,1377
0.812,1376
0.808,1376
0.806,1375
0.802,1375
0.8,1374
0.798,1374
0.788,1369
0.788,1368
0.782,1365
0.782,1364
0.78,1363
0.78,1362
0.776,1360
0.776,1359
0.774,1358
0.774,1356
0.766,1352
0.766,1350
0.764,1349
0.764,1348
0.762,1347
0.762,1346
0.758,1344
0.758,1342
0.756,1341
0.756,1340
0.754,1339
0.752,1339
0.75,1338
0.738,1338
0.738,1340
0.73,1344
0.73,1345
0.728,1346
0.728,1347
0.722,1350
0.722,1351
0.714,1355
0.714,1356
0.704,1361
0.704,1362
0.7,1364
0.7,1365
0.698,1366
0.698,1367
0.696,1368
0.696,1369
0.694,1370
0.694,1371
0.692,1372
0.692,1373
0.69,1374
0.69,1376
0.688,1377
0.688,1385
0.686,1386
0.686,1389
0.684,1390
0.684,1391
0.68,1393
0.678,1393
0.674,1391
0.674,1390
0.672,1389
0.672,1378
0.67,1377
0.67,1374
0.668,1375
0.666,1374
0.666,1375
0.662,1377
0.646,1377
0.644,1376
0.636,1376
0.634,1377
0.626,1377
0.624,1376
0.622,1376
0.618,1374
0.616,1374
0.612,1372
0.606,1372
0.604,1371
0.592,1371
0.59,1372
0.588,1372
0.58,1376
0.534,1376
0.532,1375
0.528,1375
0.526,1374
0.522,1374
0.52,1373
0.518,1373
0.516,1372
0.51,1372
0.508,1371
0.506,1371
0.502,1369
0.5,1369
0.494,1366
0.494,1365
0.49,1363
0.49,1362
0.486,1360
0.486,1358
0.482,1356
0.482,1354
0.478,1352
0.478,1351
0.476,1350
0.476,1349
0.474,1348
0.474,1347
0.472,1346
0.472,1344
0.468,1342
0.468,1341
0.466,1340
0.466,1338
0.46,1335
0.46,1334
0.458,1334
0.456,1333
0.45,1333
0.444,1336
0.444,1337
0.44,1339
0.44,1340
0.436,1342
0.436,1343
0.434,1344
0.434,1345
0.428,1348
0.428,1349
0.426,1350
0.426,1351
0.418,1355
0.416,1355
0.416,1356
0.408,1360
0.408,1361
0.406,1362
0.406,1363
0.402,1365
0.402,1366
0.398,1368
0.398,1369
0.396,1370
0.396,1371
0.394,1372
0.394,1379
0.392,1380
0.392,1384
0.39,1385
0.39,1390
0.388,1391
0.384,1391
0.38,1389
0.38,1386
0.378,1385
0.378,1379
0.376,1378
0.376,1376
0.342,1376
0.34,1375
0.338,1375
0.336,1374
0.328,1374
0.326,1373
0.324,1373
0.32,1371
0.32,1370
0.31,1370
0.308,1371
0.304,1371
0.302,1370
0.302,1369
0.304,1368
0.306,1368
0.312,1365
0.318,1365
0.32,1366
0.322,1366
0.326,1368
0.326,1369
0.328,1370
0.334,1370
0.336,1371
0.344,1371
0.346,1372
0.358,1372
0.36,1371
0.374,1371
0.374,1370
0.376,1369
0.376,1368
0.378,1367
0.38,1367
0.382,1368
0.382,1375
0.384,1376
0.384,1377
0.384,1375
0.382,1374
0.382,1367
0.376,1367
0.376,1369
0.372,1371
0.358,1371
0.356,1372
0.346,1372
0.344,1371
0.336,1371
0.334,1370
0.33,1370
0.326,1368
0.326,1367
0.324,1366
0.32,1366
0.318,1365
0.31,1365
0.304,1368
0.302,1368
0.302,1371
0.31,1371
0.312,1370
0.318,1370
0.32,1371
0.32,1372
0.322,1373
0.326,1373
0.328,1374
0.334,1374
0.336,1375
0.34,1375
0.342,1376
0.374,1376
0.376,1377
0.376,1378
0.378,1379
0.378,1385
0.38,1386
0.38,1389
0.382,1390
0.382,1391
0.39,1391
0.39,1385
0.392,1384
0.392,1380
0.394,1379
0.394,1373
0.396,1372
0.396,1371
0.398,1370
0.398,1369
0.402,1367
0.402,1366
0.406,1364
0.406,1363
0.408,1362
0.408,1361
0.416,1357
0.416,1356
0.418,1355
0.42,1355
0.426,1352
0.426,1351
0.428,1350
0.428,1349
0.434,1346
0.434,1345
0.436,1344
0.436,1343
0.44,1341
0.44,1340
0.444,1338
0.444,1337
0.452,1333
0.454,1333
0.456,1334
0.458,1334
0.46,1335
0.46,1336
0.466,1339
0.466,1340
0.468,1341
0.468,1343
0.472,1345
0.472,1346
0.474,1347
0.474,1349
0.476,1350
0.476,1351
0.478,1352
0.478,1353
0.482,1355
0.482,1357
0.486,1359
0.486,1360
0.488,1361
0.488,1362
0.49,1363
0.49,1364
0.494,1366
0.494,1367
0.498,1369
0.5,1369
0.504,1371
0.508,1371
0.51,1372
0.514,1372
0.516,1373
0.52,1373
0.522,1374
0.524,1374
0.526,1375
0.532,1375
0.534,1376
0.58,1376
0.582,1375
0.584,1375
0.592,1371
0.602,1371
0.604,1372
0.61,1372
0.612,1373
0.614,1373
0.62,1376
0.622,1376
0.624,1377
0.634,1377
0.636,1376
0.644,1376
0.646,1377
0.664,1377
0.668,1375
0.67,1376
0.67,1377
0.672,1378
0.672,1390
0.676,1392
0.676,1393
0.682,1393
0.684,1392
0.684,1390
0.686,1389
0.686,1386
0.688,1385
0.688,1377
0.69,1376
0.69,1375
0.692,1374
0.692,1373
0.694,1372
0.694,1371
0.696,1370
0.696,1369
0.698,1368
0.698,1367
0.7,1366
0.7,1365
0.702,1364
0.702,1363
0.714,1357
0.714,1356
0.722,1352
0.722,1351
0.728,1348
0.728,1347
0.73,1346
0.73,1345
0.736,1342
0.736,1341
0.738,1340
0.738,1339
0.74,1338
0.748,1338
0.75,1339
0.752,1339
0.756,1341
0.756,1342
0.758,1343
0.758,1344
0.76,1345
0.76,1346
0.762,1347
0.762,1348
0.764,1349
0.764,1350
0.766,1351
0.766,1352
0.768,1353
0.768,1354
0.774,1357
0.774,1359
0.776,1360
0.776,1361
0.78,1363
0.78,1364
0.782,1365
0.782,1366
0.788,1369
0.788,1370
0.796,1374
0.8,1374
0.802,1375
0.804,1375
0.806,1376
0.812,1376
0.814,1377
0.822,1377
0.824,1378
0.832,1378
0.834,1379
0.842,1379
0.844,1380
0.852,1380
0.854,1379
0.858,1379
0.862,1377
0.862,1376
0.864,1375
0.864,1374
0.866,1373
0.868,1373
0.87,1372
0.876,1372
0.88,1374
0.884,1374
0.89,1377
0.896,1377
0.898,1378
0.908,1378
0.91,1377
0.912,1378
0.938,1378
0.946,1382
0.946,1391
0.948,1392
0.948,1399
0.95,1400
0.95,1403
0.952,1404
0.958,1404
0.958,1402
0.96,1401
0.96,1395
0.962,1394
0.962,1389
0.964,1388
0.964,1380
0.966,1379
0.966,1378
0.968,1377
0.968,1376
0.97,1375
0.97,1374
0.972,1373
0.972,1370
0.974,1369
0.974,1368
0.978,1366
0.978,1364
0.98,1363
0.98,1362
1.0,1352
1.0,1350
1.002,1349
1.002,1348
1.008,1345
1.008,1344
1.01,1343
1.01,1342
1.018,1338
1.018,1337
1.02,1336
1.022,1336
1.034,1342
1.034,1343
1.036,1344
1.036,1345
1.04,1347
1.04,1348
1.042,1349
1.042,1350
1.044,1351
1.044,1352
1.046,1353
1.046,1354
1.048,1355
1.048,1356
1.05,1357
1.05,1358
1.052,1359
1.052,1360
1.054,1361
1.054,1362
1.056,1363
1.056,1365
1.058,1366
1.058,1367
1.064,1370
1.064,1371
1.066,1372
1.068,1372
1.07,1373
1.076,1373
1.078,1374
1.08,1374
1.082,1375
1.086,1375
1.088,1376
1.09,1376
1.092,1377
1.102,1377
1.104,1378
1.112,1378
1.114,1377
1.118,1377
1.12,1378
1.13,1378
1.132,1377
1.136,1377
1.138,1378
1.156,1378
1.158,1377
1.16,1377
1.162,1376
1.164,1376
1.17,1373
1.182,1373
1.184,1374
1.19,1374
1.192,1375
1.194,1375
1.198,1377
1.204,1377
1.206,1378
1.214,1378
1.216,1379
1.218,1378
1.226,1378
1.228,1379
1.238,1379
1.242,1381
1.244,1381
1.248,1383
1.248,1384
1.25,1385
1.25,1396
1.252,1397
1.252,1399
1.258,1399
1.258,1398
1.26,1397
1.26,1392
1.262,1391
1.262,1386
1.264,1385
1.264,1376
1.266,1375
1.266,1373
1.268,1372
1.268,1371
1.272,1369
1.272,1368
1.276,1366
1.276,1365
1.278,1364
1.278,1363
1.284,1360
1.286,1360
1.29,1358
1.29,1357
1.292,1356
1.292,1355
1.294,1354
1.294,1353
1.304,1348
1.304,1347
1.306,1346
1.306,1345
1.308,1344
1.308,1343
1.31,1342
1.312,1342
1.314,1341
1.314,1340
1.316,1339
1.316,1338
1.32,1336
1.322,1337
1.326,1337
1.328,1338
1.328,1339
1.33,1340
1.33,1341
1.336,1344
1.336,1345
1.338,1346
1.338,1347
1.342,1349
1.342,1350
1.344,1351
1.344,1352
1.346,1353
1.346,1354
1.35,1356
1.35,1358
1.352,1359
1.352,1360
1.356,1362
1.356,1364
1.358,1365
1.358,1366
1.36,1367
1.36,1368
1.37,1373
1.372,1373
1.376,1375
1.378,1375
1.38,1376
1.404,1376
1.408,1378
1.422,1378
1.424,1379
1.434,1379
1.436,1378
1.442,1378
1.444,1377
1.45,1377
1.456,1374
1.464,1374
1.468,1372
1.476,1372
1.478,1373
1.48,1373
1.486,1376
1.498,1376
1.502,1378
1.516,1378
1.518,1379
1.524,1379
1.526,1380
1.528,1380
1.53,1379
1.536,1379
1.538,1380
1.538,1386
1.54,1387
1.54,1390
1.542,1391
1.542,1393
1.544,1394
1.546,1393
1.548,1394
1.55,1393
1.55,1389
1.552,1388
1.552,1383
1.554,1382
1.554,1375
1.556,1374
1.556,1372
1.562,1369
1.564,1369
1.564,1368
1.566,1367
1.566,1366
1.568,1365
1.568,1364
1.574,1361
1.576,1361
1.58,1359
1.58,1358
1.588,1354
1.588,1353
1.596,1349
1.596,1348
1.598,1347
1.598,1346
1.6,1345
1.6,1344
1.604,1342
1.604,1341
1.606,1340
1.606,1339
1.61,1337
1.612,1337
1.614,1338
1.616,1338
1.622,1341
1.622,1342
1.624,1343
1.624,1344
1.626,1345
1.626,1346
1.628,1347
1.628,1348
1.632,1350
1.632,1351
1.634,1352
1.634,1353
1.638,1355
1.638,1356
1.64,1357
1.64,1358
1.642,1359
1.642,1360
1.644,1361
1.644,1362
1.648,1364
1.648,1365
1.65,1366
1.65,1368
1.652,1369
1.652,1370
1.654,1371
1.654,1372
1.658,1374
1.662,1374
1.664,1375
1.672,1375
1.674,1376
1.7,1376
1.702,1377
1.706,1377
1.708,1378
1.718,1378
1.726,1374
1.728,1374
1.732,1372
1.736,1372
1.738,1373
1.744,1373
1.748,1375
1.75,1375
1.756,1378
1.762,1378
1.764,1379
1.766,1379
1.768,1378
1.77,1379
1.794,1379
1.798,1377
1.804,1377
1.806,1378
1.806,1384
1.808,1385
1.808,1393
1.81,1394
1.81,1396
1.812,1396
1.814,1397
1.816,1397
1.818,1396
1.818,1394
1.82,1393
1.82,1389
1.822,1388
1.822,1384
1.824,1383
1.824,1379
1.826,1378
1.826,1376
1.828,1375
1.828,1374
1.832,1372
1.832,1369
1.834,1368
1.834,1367
1.838,1365
1.838,1364
1.852,1357
1.852,1356
1.856,1354
1.858,1354
1.862,1352
1.862,1351
1.864,1350
1.864,1348
1.87,1345
1.87,1344
1.874,1342
1.874,1341
1.878,1339
1.884,1339
1.886,1340
1.886,1341
1.89,1343
1.89,1344
1.892,1345
1.892,1347
1.896,1349
1.896,1350
1.898,1351
1.898,1352
1.9,1353
1.9,1354
1.906,1357
1.906,1358
1.908,1359
1.908,1360
1.91,1361
1.91,1362
1.912,1363
1.912,1364
1.914,1365
1.914,1366
1.916,1367
1.916,1369
1.926,1374
1.928,1374
1.934,1377
1.944,1377
1.946,1378
1.958,1378
1.96,1379
1.964,1379
1.966,1380
1.968,1380
1.97,1381
1.978,1381
1.98,1380
1.984,1380
1.986,1381
1.99,1381
1.992,1380
1.996,1380
1.998,1379
1.998,1378
2.0,1377
2.002,1377
2.004,1376
2.006,1376
2.008,1375
2.012,1375
2.014,1374
2.016,1375
2.018,1375
2.026,1379
2.03,1379
2.032,1380
2.044,1380
2.046,1379
2.05,1379
2.054,1377
2.076,1377
2.078,1378
2.08,1378
2.082,1379
2.082,1389
2.084,1390
2.084,1394
2.086,1395
2.086,1400
2.088,1401
2.094,1401
2.094,1399
2.096,1398
2.096,1394
2.098,1393
2.096,1392
2.098,1391
2.098,1385
2.1,1384
2.1,1380
2.102,1379
2.102,1377
2.104,1376
2.104,1373
2.106,1372
2.106,1371
2.108,1370
2.108,1369
2.112,1367
2.112,1364
2.114,1363
2.114,1362
2.122,1358
2.122,1357
2.13,1353
2.132,1353
2.134,1352
2.134,1351
2.136,1350
2.136,1349
2.138,1348
2.138,1347
2.146,1343
2.146,1342
2.148,1341
2.148,1339
2.152,1337
2.152,1336
2.154,1335
2.156,1335
2.158,1336
2.16,1336
2.162,1337
2.164,1337
2.168,1339
2.168,1340
2.172,1342
2.172,1343
2.174,1344
2.174,1345
2.178,1347
2.178,1348
2.18,1349
2.18,1351
2.184,1353
2.184,1354
2.186,1355
2.186,1356
2.188,1357
2.188,1359
2.19,1360
2.19,1362
2.192,1363
2.192,1364
2.194,1365
2.194,1366
2.202,1370
2.204,1370
2.206,1371
2.216,1371
2.218,1372
2.22,1372
2.222,1373
2.226,1373
2.228,1374
2.24,1374
2.242,1375
2.244,1375
2.246,1376
2.25,1376
2.252,1377
2.26,1377
2.262,1376
2.266,1376
2.268,1375
2.272,1375
2.274,1376
2.298,1376
2.3,1375
2.308,1375
2.316,1371
2.318,1371
2.32,1370
2.326,1370
2.33,1372
2.332,1372
2.338,1375
2.342,1375
2.344,1376
2.346,1376
2.348,1377
2.366,1377
2.368,1376
2.372,1376
2.374,1377
2.38,1377
2.39,1382
2.39,1383
2.392,1384
2.392,1386
2.394,1387
2.394,1389
2.392,1390
2.392,1392
2.394,1393
2.394,1396
2.396,1397
2.396,1399
2.402,1399
2.402,1398
2.404,1397
2.404,1388
2.406,1387
2.406,1383
2.408,1382
2.408,1374
2.41,1373
2.41,1371
2.412,1370
2.412,1369
2.42,1365
2.42,1364
2.424,1362
2.424,1361
2.426,1360
2.426,1359
2.438,1353
2.44,1353
2.442,1352
2.442,1351
2.444,1350
2.444,1349
2.446,1348
2.446,1347
2.448,1346
2.448,1345
2.456,1341
2.456,1340
2.464,1336
2.466,1336
2.474,1340
2.476,1340
2.478,1341
2.478,1342
2.48,1343
2.48,1345
2.482,1346
2.482,1347
2.488,1350
2.488,1352
2.49,1353
2.49,1354
2.492,1355
2.492,1356
2.494,1357
2.494,1358
2.498,1360
2.498,1361
2.502,1363
2.502,1365
2.504,1366
2.504,1367
2.51,1370
2.51,1371
2.514,1373
2.514,1374
2.516,1374
2.518,1375
2.528,1375
2.53,1376
2.534,1376
2.536,1377
2.548,1377
2.55,1378
2.558,1378
2.56,1377
2.564,1377
2.566,1378
2.59,1378
2.592,1377
2.598,1377
2.6,1376
2.608,1376
2.62,1370
2.622,1370
2.624,1371
2.628,1371
2.63,1372
2.632,1372
2.634,1373
2.634,1374
2.638,1376
2.648,1376
2.65,1377
2.68,1377
2.682,1378
2.684,1378
2.686,1379
2.688,1379
2.692,1381
2.692,1385
2.694,1386
2.694,1390
2.696,1391
2.696,1393
2.702,1393
2.702,1392
2.706,1390
2.706,1381
2.708,1380
2.708,1372
2.71,1371
2.71,1370
2.736,1357
2.736,1356
2.738,1355
2.738,1354
2.74,1353
2.74,1352
2.748,1348
2.748,1347
2.754,1344
2.754,1342
2.756,1341
2.756,1340
2.76,1338
2.762,1338
2.766,1336
2.768,1336
2.776,1340
2.776,1341
2.778,1342
2.778,1343
2.784,1346
2.784,1347
2.786,1348
2.786,1350
2.788,1351
2.788,1352
2.79,1353
2.79,1354
2.792,1355
2.792,1356
2.794,1357
2.794,1359
2.8,1362
2.8,1364
2.802,1365
2.802,1366
2.804,1367
2.804,1368
2.806,1369
2.806,1370
2.808,1371
2.808,1372
2.81,1373
2.816,1373
2.818,1374
2.82,1374
2.822,1375
2.842,1375
2.846,1377
2.868,1377
2.87,1378
2.878,1378
2.88,1377
2.884,1377
2.896,1371
2.906,1371
2.908,1372
2.91,1372
2.912,1373
2.914,1373
2.918,1375
2.92,1375
2.922,1376
2.928,1376
2.93,1377
2.958,1377
2.96,1376
2.972,1376
2.974,1377
2.974,1386
2.976,1387
2.976,1391
2.978,1392
2.978,1394
2.984,1394
2.984,1393
2.986,1392
2.986,1388
2.988,1387
2.988,1385
2.99,1384
2.99,1379
2.992,1378
2.992,1377
2.994,1376
2.994,1374
2.996,1373
2.996,1372
2.998,1371
2.998,1370
3.0,1369
3.0,1368
3.002,1367
3.002,1366
3.006,1364
3.006,1363
3.01,1361
3.01,1360
3.028,1351
3.028,1350
3.03,1349
3.03,1348
3.034,1346
3.034,1345
3.038,1343
3.038,1342
3.046,1338
3.048,1339
3.05,1339
3.054,1341
3.056,1341
3.058,1342
3.058,1343
3.06,1344
3.06,1345
3.062,1346
3.062,1347
3.066,1349
3.066,1350
3.068,1351
3.068,1352
3.072,1354
3.072,1355
3.074,1356
3.074,1358
3.08,1361
3.08,1362
3.082,1363
3.082,1365
3.084,1366
3.084,1367
3.086,1368
3.086,1369
3.088,1370
3.088,1371
3.092,1373
3.094,1373
3.096,1374
3.098,1374
3.1,1375
3.106,1375
3.108,1376
3.112,1376
3.114,1377
3.12,1377
3.122,1378
3.128,1378
3.13,1379
3.132,1378
3.134,1378
3.136,1379
3.138,1378
3.148,1378
3.15,1377
3.152,1378
3.16,1378
3.162,1377
3.166,1377
3.168,1376
3.168,1375
3.174,1372
3.186,1372
3.19,1374
3.194,1374
3.196,1375
3.198,1375
3.2,1376
3.24,1376
3.242,1375
3.25,1379
3.25,1386
3.252,1387
3.252,1396
3.254,1397
3.254,1400
3.256,1401
3.262,1401
3.262,1399
3.264,1398
3.264,1394
3.266,1393
3.264,1392
3.264,1390
3.266,1389
3.266,1385
3.268,1384
3.268,1379
3.27,1378
3.27,1375
3.272,1374
3.272,1371
3.278,1368
3.278,1366
3.28,1365
3.28,1364
3.282,1363
3.282,1362
3.284,1361
3.284,1360
3.286,1359
3.286,1358
3.294,1354
3.294,1353
3.302,1349
3.302,1348
3.304,1347
3.304,1346
3.308,1344
3.308,1343
3.312,1341
3.312,1340
3.318,1337
3.318,1336
3.322,1334
3.33,1334
3.332,1335
3.332,1336
3.338,1339
3.338,1340
3.34,1341
3.34,1342
3.342,1343
3.342,1344
3.348,1347
3.348,1348
3.35,1349
3.35,1352
3.352,1353
3.352,1354
3.356,1356
3.356,1358
3.36,1360
3.36,1361
3.362,1362
3.362,1364
3.364,1365
3.364,1366
3.372,1370
3.374,1370
3.38,1373
3.382,1373
3.384,1374
3.39,1374
3.392,1375
3.408,1375
3.41,1376
3.422,1376
3.424,1377
3.426,1377
3.428,1378
3.434,1378
3.436,1377
3.438,1377
3.442,1375
3.448,1375
3.45,1376
3.454,1376
3.456,1377
3.46,1377
3.462,1378
3.464,1377
3.468,1377
3.472,1375
3.474,1375
3.48,1372
3.482,1372
3.484,1371
3.496,1371
3.498,1372
3.5,1372
3.502,1373
3.502,1374
3.504,1375
3.508,1375
3.51,1376
3.52,1376
3.522,1377
3.526,1377
3.528,1376
3.534,1376
3.536,1377
3.542,1377
3.544,1378
3.546,1377
3.548,1378
3.55,1378
3.552,1379
3.552,1380
3.558,1383
3.558,1389
3.56,1390
3.56,1393
3.562,1394
3.562,1398
3.568,1398
3.57,1397
3.57,1396
3.572,1395
3.572,1388
3.574,1387
3.574,1377
3.576,1376
3.576,1373
3.578,1372
3.578,1371
3.582,1369
3.582,1368
3.59,1364
3.59,1363
3.6,1358
3.6,1357
3.608,1353
3.608,1352
3.616,1348
3.616,1347
3.62,1345
3.62,1344
3.622,1343
3.622,1341
3.628,1338
3.63,1338
3.632,1337
3.636,1337
3.64,1339
3.642,1339
3.646,1341
3.646,1342
3.652,1345
3.652,1346
3.654,1347
3.654,1349
3.656,1350
3.656,1351
3.658,1352
3.658,1354
3.664,1357
3.664,1360
3.666,1361
3.666,1364
3.674,1368
3.674,1369
3.678,1371
3.678,1372
3.682,1372
3.686,1374
3.688,1374
3.69,1375
3.694,1375
3.696,1376
3.698,1376
3.7,1377
3.714,1377
3.716,1378
3.73,1378
3.732,1379
3.734,1379
3.736,1380
3.748,1380
3.75,1379
3.752,1379
3.754,1378
3.76,1378
3.762,1379
3.766,1379
3.768,1378
3.77,1378
3.776,1375
3.778,1375
3.78,1374
3.784,1374
3.786,1373
3.794,1373
3.798,1375
3.8,1375
3.802,1376
3.804,1376
3.808,1378
3.812,1378
3.814,1379
3.816,1379
3.818,1378
3.82,1379
3.822,1379
3.824,1378
3.83,1378
3.832,1379
3.834,1378
3.836,1379
3.842,1379
3.844,1380
3.848,1380
3.85,1381
3.852,1381
3.856,1383
3.856,1385
3.858,1386
3.858,1392
3.86,1393
3.86,1395
3.866,1395
3.866,1394
3.868,1393
3.868,1390
3.87,1389
3.87,1386
3.872,1385
3.872,1376
3.874,1375
3.874,1374
3.878,1372
3.88,1372
3.884,1370
3.884,1369
3.888,1367
3.888,1366
3.89,1365
3.89,1364
3.896,1361
3.898,1361
3.9,1360
3.9,1359
3.904,1357
3.904,1356
3.914,1351
3.914,1349
3.916,1348
3.916,1347
3.92,1345
3.92,1344
3.926,1341
3.928,1341
3.934,1338
3.936,1338
3.94,1340
3.94,1341
3.948,1345
3.948,1346
3.95,1347
3.95,1348
3.952,1349
3.952,1350
3.954,1351
3.954,1352
3.956,1353
3.956,1354
3.958,1355
3.958,1356
3.96,1357
3.96,1359
3.966,1362
3.966,1363
3.968,1364
3.968,1365
3.976,1369
3.978,1369
3.99,1375
3.994,1375
3.996,1376
3.998,1376
4.0,1377
4.01,1377
4.012,1378
4.016,1378
4.018,1379
4.022,1379
4.024,1378
4.026,1378
4.028,1379
4.036,1379
4.038,1378
4.042,1378
4.044,1377
4.052,1377
4.06,1373
4.062,1373
4.064,1372
4.07,1372
4.072,1373
4.074,1373
4.078,1375
4.08,1375
4.084,1377
4.09,1377
4.092,1378
4.1,1378
4.102,1379
4.104,1378
4.106,1379
4.124,1379
4.126,1378
4.128,1378
4.13,1377
4.132,1377
4.134,1376
4.138,1378
4.138,1384
4.14,1385
4.14,1388
4.142,1389
4.14,1390
4.142,1391
4.142,1394
4.144,1395
4.144,1396
4.15,1396
4.15,1394
4.152,1393
4.152,1387
4.154,1386
4.154,1382
4.156,1381
4.156,1378
4.158,1377
4.158,1375
4.162,1373
4.162,1371
4.164,1370
4.164,1369
4.168,1367
4.168,1366
4.172,1364
4.172,1363
4.174,1362
4.174,1361
4.182,1357
4.184,1357
4.184,1356
4.188,1354
4.188,1353
4.192,1351
4.192,1350
4.194,1349
4.194,1348
4.202,1344
4.202,1342
4.204,1341
4.204,1340
4.214,1335
4.224,1340
4.224,1341
4.226,1342
4.226,1343
4.23,1345
4.23,1346
4.234,1348
4.234,1349
4.236,1350
4.24,1350
4.24,1349
4.242,1348
4.24,1347
4.24,1345
4.238,1344
4.238,1343
4.236,1342
4.236,1341
4.234,1340
4.234,1339
4.23,1337
4.23,1336
4.224,1333
4.224,1332
4.22,1330
3.322,1329
3.32,1330
3.318,1330
3.316,1331
3.314,1331
3.312,1332
3.312,1333
3.31,1334
3.31,1335
3.304,1338
3.304,1339
3.3,1341
3.3,1342
3.296,1344
3.296,1345
3.288,1349
3.288,1350
3.28,1354
3.28,1355
3.278,1356
3.278,1357
3.276,1358
3.276,1359
3.274,1360
3.274,1362
3.272,1363
3.272,1364
3.268,1366
3.268,1368
3.266,1369
3.266,1370
3.264,1371
3.266,1372
3.264,1373
3.264,1376
3.262,1377
3.262,1382
3.26,1383
3.258,1383
3.256,1382
3.256,1371
3.252,1371
3.248,1369
3.242,1369
3.236,1372
3.202,1372
3.2,1371
3.198,1371
3.194,1369
3.19,1369
3.188,1368
3.17,1368
3.158,1374
3.128,1374
3.126,1373
3.118,1373
3.116,1372
3.114,1372
3.112,1371
3.106,1371
3.104,1370
3.1,1370
3.094,1367
3.094,1366
3.092,1365
3.092,1364
3.09,1363
3.09,1362
3.088,1361
3.088,1359
3.082,1356
3.082,1355
3.08,1354
3.08,1352
3.076,1350
3.076,1349
3.072,1347
3.072,1345
3.066,1342
3.066,1341
3.064,1340
3.064,1338
3.062,1337
3.058,1337
3.054,1335
3.052,1335
3.05,1334
3.044,1334
3.042,1335
3.038,1335
3.032,1338
3.032,1339
3.028,1341
3.028,1342
3.026,1343
3.026,1344
3.024,1345
3.024,1346
3.004,1356
3.004,1358
2.998,1361
2.998,1362
2.994,1364
2.994,1365
2.992,1366
2.992,1367
2.99,1368
2.99,1370
2.988,1371
2.988,1372
2.986,1373
2.986,1375
2.984,1376
2.984,1384
2.982,1385
2.98,1384
2.98,1371
2.978,1370
2.978,1363
2.972,1363
2.972,1365
2.97,1366
2.97,1368
2.964,1371
2.962,1371
2.96,1372
2.958,1372
2.956,1373
2.948,1373
2.946,1372
2.938,1372
2.936,1373
2.93,1373
2.928,1372
2.926,1372
2.924,1371
2.922,1371
2.916,1368
2.91,1368
2.906,1366
2.896,1366
2.894,1365
2.89,1367
2.89,1368
2.888,1369
2.886,1369
2.876,1374
2.87,1374
2.866,1372
2.862,1372
2.86,1373
2.854,1373
2.852,1372
2.848,1372
2.846,1371
2.826,1371
2.824,1370
2.82,1370
2.818,1369
2.816,1369
2.814,1368
2.814,1367
2.81,1365
2.81,1363
2.808,1362
2.808,1361
2.804,1359
2.804,1358
2.802,1357
2.802,1356
2.8,1355
2.8,1354
2.798,1353
2.798,1352
2.796,1351
2.796,1350
2.794,1349
2.794,1347
2.792,1346
2.792,1345
2.79,1344
2.79,1343
2.786,1341
2.786,1340
2.784,1339
2.784,1338
2.778,1335
2.778,1334
2.774,1332
2.764,1332
2.762,1333
2.758,1333
2.75,1337
2.75,1338
2.748,1339
2.748,1340
2.746,1341
2.746,1342
2.74,1345
2.74,1346
2.732,1350
2.732,1352
2.716,1360
2.716,1361
2.704,1367
2.704,1368
2.702,1369
2.702,1378
2.702,1369
2.716,1362
2.716,1361
2.73,1354
2.73,1353
2.732,1352
2.732,1351
2.74,1347
2.74,1346
2.746,1343
2.746,1342
2.748,1341
2.748,1339
2.76,1333
2.762,1333
2.764,1332
2.772,1332
2.778,1335
2.778,1336
2.784,1339
2.784,1340
2.786,1341
2.786,1342
2.792,1345
2.792,1347
2.794,1348
2.794,1350
2.796,1351
2.796,1352
2.8,1354
2.8,1356
2.802,1357
2.802,1358
2.804,1359
2.804,1360
2.808,1362
2.808,1363
2.81,1364
2.81,1366
2.814,1368
2.814,1369
2.818,1369
2.82,1370
2.822,1370
2.824,1371
2.846,1371
2.848,1372
2.852,1372
2.854,1373
2.862,1373
2.864,1372
2.868,1374
2.876,1374
2.878,1373
2.88,1373
2.888,1369
2.89,1369
2.89,1368
2.894,1366
2.904,1366
2.906,1367
2.908,1367
2.91,1368
2.914,1368
2.92,1371
2.922,1371
2.924,1372
2.926,1372
2.928,1373
2.938,1373
2.94,1372
2.946,1372
2.948,1373
2.958,1373
2.962,1371
2.966,1371
2.968,1370
2.968,1369
2.97,1368
2.97,1366
2.972,1365
2.972,1364
2.974,1363
2.976,1363
2.978,1364
2.978,1370
2.98,1371
2.98,1384
2.982,1385
2.984,1384
2.984,1377
2.986,1376
2.986,1374
2.988,1373
2.988,1371
2.99,1370
2.99,1368
2.992,1367
2.992,1366
2.998,1363
2.998,1362
3.004,1359
3.004,1357
3.022,1348
3.022,1347
3.026,1345
3.026,1344
3.028,1343
3.028,1342
3.032,1340
3.032,1339
3.04,1335
3.042,1335
3.044,1334
3.05,1334
3.056,1337
3.06,1337
3.064,1339
3.064,1340
3.066,1341
3.066,1343
3.072,1346
3.072,1347
3.074,1348
3.074,1349
3.076,1350
3.076,1351
3.08,1353
3.08,1354
3.082,1355
3.082,1357
3.088,1360
3.088,1361
3.09,1362
3.09,1364
3.092,1365
3.092,1366
3.094,1367
3.094,1368
3.098,1370
3.104,1370
3.106,1371
3.112,1371
3.116,1373
3.126,1373
3.128,1374
3.16,1374
3.172,1368
3.188,1368
3.19,1369
3.192,1369
3.196,1371
3.2,1371
3.202,1372
3.238,1372
3.244,1369
3.246,1369
3.248,1370
3.25,1370
3.252,1371
3.254,1371
3.256,1372
3.256,1383
3.262,1383
3.262,1377
3.264,1376
3.264,1373
3.266,1372
3.266,1369
3.268,1368
3.268,1367
3.272,1365
3.272,1363
3.274,1362
3.274,1361
3.276,1360
3.276,1359
3.278,1358
3.278,1357
3.28,1356
3.28,1355
3.288,1351
3.288,1350
3.296,1346
3.296,1345
3.3,1343
3.3,1342
3.304,1340
3.304,1339
3.31,1336
3.31,1335
3.312,1334
3.312,1333
3.318,1330
3.322,1330
3.324,1329
3.33,1329
3.332,1330
3.334,1330
3.338,1332
3.338,1333
3.34,1334
3.34,1335
3.346,1338
3.346,1340
3.35,1342
3.35,1343
3.354,1345
3.354,1346
3.356,1347
3.356,1349
3.358,1350
3.358,1351
3.36,1352
3.36,1353
3.362,1354
3.362,1355
3.366,1357
3.366,1359
3.368,1360
3.368,1362
3.374,1365
3.374,1366
3.376,1367
3.38,1367
3.386,1370
3.388,1370
3.39,1371
3.392,1370
3.406,1370
3.408,1371
3.41,1371
3.412,1372
3.424,1372
3.426,1373
3.434,1373
3.438,1371
3.448,1371
3.45,1372
3.456,1372
3.46,1374
3.462,1373
3.464,1374
3.476,1368
3.478,1368
3.48,1367
3.482,1367
3.484,1366
3.49,1366
3.492,1367
3.498,1367
3.5,1368
3.504,1368
3.51,1371
3.51,1372
3.52,1372
3.522,1373
3.528,1373
3.53,1372
3.536,1372
3.538,1373
3.554,1373
3.558,1375
3.56,1375
3.562,1376
3.562,1377
3.564,1378
3.564,1387
3.566,1388
3.568,1387
3.568,1373
3.57,1372
3.57,1371
3.572,1370
3.572,1369
3.574,1368
3.574,1367
3.578,1365
3.578,1364
3.584,1361
3.584,1360
3.602,1351
3.602,1349
3.61,1345
3.61,1344
3.616,1341
3.616,1339
3.618,1338
3.618,1337
3.624,1334
3.626,1334
3.628,1333
3.638,1333
3.64,1334
3.642,1334
3.644,1335
3.646,1335
3.652,1338
3.652,1339
3.654,1340
3.654,1341
3.66,1344
3.66,1346
3.662,1347
3.662,1348
3.664,1349
3.664,1351
3.666,1352
3.666,1353
3.67,1355
3.67,1358
3.672,1359
3.672,1361
3.674,1362
3.674,1363
3.682,1367
3.682,1368
3.684,1368
3.688,1370
3.694,1370
3.7,1373
3.702,1373
3.704,1372
3.708,1372
3.71,1373
3.718,1373
3.72,1374
3.732,1374
3.734,1375
3.738,1375
3.74,1376
3.748,1376
3.752,1374
3.756,1374
3.758,1375
3.762,1375
3.764,1374
3.766,1374
3.774,1370
3.776,1370
3.778,1369
3.782,1369
3.784,1368
3.788,1368
3.79,1369
3.798,1369
3.804,1372
3.806,1372
3.808,1373
3.81,1373
3.812,1374
3.814,1374
3.816,1375
3.82,1375
3.822,1374
3.832,1374
3.834,1375
3.846,1375
3.848,1374
3.85,1374
3.852,1373
3.854,1373
3.854,1372
3.858,1370
3.862,1372
3.862,1383
3.866,1383
3.866,1373
3.868,1372
3.868,1371
3.872,1369
3.876,1369
3.876,1368
3.878,1367
3.878,1366
3.884,1363
3.884,1362
3.898,1355
3.898,1354
3.906,1350
3.906,1349
3.908,1348
3.908,1346
3.91,1345
3.91,1344
3.922,1338
3.922,1337
3.926,1335
3.93,1335
3.932,1334
3.938,1334
3.948,1339
3.948,1340
3.956,1344
3.956,1345
3.958,1346
3.958,1347
3.96,1348
3.96,1350
3.964,1352
3.964,1353
3.966,1354
3.966,1355
3.97,1357
3.97,1358
3.972,1359
3.972,1360
3.974,1361
3.974,1363
3.978,1365
3.982,1365
3.994,1371
4.0,1371
4.004,1373
4.006,1373
4.008,1374
4.01,1373
4.012,1374
4.014,1374
4.016,1375
4.022,1375
4.024,1374
4.042,1374
4.044,1373
4.048,1373
4.054,1370
4.058,1370
4.06,1369
4.066,1369
4.068,1368
4.07,1368
4.072,1369
4.076,1369
4.078,1370
4.08,1370
4.084,1372
4.086,1372
4.088,1373
4.102,1373
4.104,1374
4.116,1374
4.118,1375
4.122,1375
4.126,1373
4.128,1373
4.134,1370
4.134,1369
4.14,1366
4.144,1368
4.144,1382
4.144,1368
4.142,1367
4.142,1365
4.14,1366
4.138,1366
4.136,1367
4.136,1368
4.126,1373
4.124,1373
4.12,1375
4.118,1375
4.116,1374
4.106,1374
4.104,1373
4.09,1373
4.088,1372
4.086,1372
4.082,1370
4.08,1370
4.078,1369
4.072,1369
4.07,1368
4.068,1368
4.066,1369
4.06,1369
4.058,1370
4.052,1370
4.046,1373
4.044,1373
4.042,1374
4.024,1374
4.022,1375
4.018,1375
4.016,1374
4.012,1374
4.01,1373
4.008,1374
4.002,1371
3.996,1371
3.986,1366
3.984,1366
3.982,1365
3.98,1365
3.974,1362
3.974,1361
3.972,1360
3.972,1358
3.97,1357
3.97,1356
3.964,1353
3.964,1351
3.96,1349
3.96,1348
3.958,1347
3.958,1345
3.956,1344
3.956,1343
3.948,1339
3.948,1338
3.94,1334
3.932,1334
3.93,1335
3.924,1335
3.924,1336
3.91,1343
3.91,1345
3.908,1346
3.908,1347
3.906,1348
3.906,1349
3.898,1353
3.898,1354
3.884,1361
3.884,1362
3.88,1364
3.88,1365
3.876,1367
3.876,1368
3.874,1369
3.872,1369
3.87,1370
3.868,1370
3.866,1371
3.862,1371
3.86,1370
3.86,1369
3.858,1370
3.856,1369
3.856,1370
3.854,1371
3.854,1372
3.852,1373
3.85,1373
3.848,1374
3.846,1374
3.844,1375
3.836,1375
3.834,1374
3.822,1374
3.82,1375
3.816,1375
3.812,1373
3.808,1373
3.8,1369
3.79,1369
3.788,1368
3.782,1368
3.78,1369
3.778,1369
3.776,1370
3.772,1370
3.762,1375
3.76,1375
3.756,1373
3.754,1374
3.752,1373
3.746,1376
3.74,1376
3.738,1375
3.734,1375
3.732,1374
3.72,1374
3.718,1373
3.71,1373
3.708,1372
3.704,1372
3.702,1373
3.696,1370
3.69,1370
3.686,1368
3.684,1368
3.682,1367
3.682,1366
3.674,1362
3.674,1361
3.672,1360
3.672,1359
3.67,1358
3.67,1355
3.668,1354
3.668,1353
3.666,1352
3.666,1351
3.664,1350
3.664,1349
3.662,1348
3.662,1346
3.66,1345
3.66,1344
3.658,1343
3.658,1342
3.654,1340
3.654,1339
3.652,1338
3.652,1337
3.65,1336
3.648,1336
3.644,1334
3.642,1334
3.64,1333
3.626,1333
3.622,1335
3.62,1335
3.618,1336
3.618,1338
3.616,1339
3.616,1340
3.61,1343
3.61,1344
3.602,1348
3.602,1350
3.586,1358
3.586,1359
3.578,1363
3.578,1364
3.574,1366
3.574,1367
3.572,1368
3.572,1369
3.57,1370
3.57,1372
3.568,1373
3.568,1387
3.566,1388
3.564,1387
3.564,1377
3.562,1376
3.562,1375
3.56,1375
3.556,1373
3.538,1373
3.536,1372
3.53,1372
3.528,1373
3.522,1373
3.52,1372
3.512,1372
3.508,1370
3.508,1369
3.506,1368
3.5,1368
3.498,1367
3.494,1367
3.492,1366
3.484,1366
3.482,1367
3.478,1367
3.476,1368
3.474,1368
3.464,1373
3.458,1373
3.456,1372
3.45,1372
3.448,1371
3.436,1371
3.432,1373
3.426,1373
3.424,1372
3.414,1372
3.412,1371
3.408,1371
3.406,1370
3.392,1370
3.39,1371
3.384,1368
3.382,1368
3.38,1367
3.378,1367
3.374,1365
3.374,1364
3.368,1361
3.368,1360
3.366,1359
3.366,1357
3.364,1356
3.364,1355
3.362,1354
3.362,1353
3.36,1352
3.36,1351
3.358,1350
3.358,1349
3.356,1348
3.356,1347
3.354,1346
3.354,1344
3.35,1342
3.35,1341
3.346,1339
3.346,1338
3.344,1337
3.344,1336
3.34,1334
3.34,1333
3.338,1332
3.338,1331
3.336,1330
3.332,1330
3.33,1329
0.444,1329
0.444,1330
0.44,1332
0.44,1333
0.434,1336
0.434,1337
0.432,1338
0.432,1339
0.428,1341
0.428,1342
0.426,1343
0.426,1344
0.42,1347
0.42,1348
0.418,1349
0.418,1350
0.416,1351
0.414,1351
0.408,1354
0.408,1355
0.402,1358
0.402,1359
0.398,1361
0.398,1362
0.394,1364
0.394,1365
0.39,1367
0.39,1369
0.388,1370
0.388,1376
0.388,1371
0.39,1370
0.39,1368
0.394,1366
0.394,1365
0.398,1363
0.398,1362
0.4,1361
0.4,1360
0.408,1356
0.408,1355
0.416,1351
0.418,1351
0.418,1350
0.42,1349
0.42,1348
0.426,1345
0.426,1344
0.428,1343
0.428,1342
0.432,1340
0.432,1339
0.434,1338
0.434,1337
0.44,1334
0.44,1333
0.444,1331
0.444,1330
0.446,1329
0.458,1329
0.46,1330
0.462,1330
0.468,1333
0.468,1335
0.474,1338
0.474,1340
0.476,1341
0.476,1342
0.48,1344
0.48,1346
0.482,1347
0.482,1348
0.484,1349
0.484,1350
0.486,1351
0.486,1352
0.488,1353
0.488,1354
0.49,1355
0.49,1356
0.494,1358
0.494,1360
0.498,1362
0.498,1363
0.502,1365
0.502,1366
0.504,1366
0.506,1367
0.508,1367
0.51,1368
0.516,1368
0.518,1369
0.52,1369
0.522,1370
0.524,1370
0.526,1371
0.53,1371
0.532,1372
0.56,1372
0.562,1371
0.566,1371
0.568,1372
0.576,1372
0.578,1371
0.58,1371
0.588,1367
0.594,1367
0.596,1366
0.6,1366
0.602,1365
0.606,1367
0.61,1367
0.612,1368
0.614,1368
0.622,1372
0.66,1372
0.666,1369
0.666,1368
0.668,1367
0.668,1365
0.672,1363
0.674,1363
0.676,1364
0.676,1372
0.678,1373
0.678,1382
0.682,1382
0.682,1376
0.684,1375
0.684,1372
0.686,1371
0.686,1369
0.692,1366
0.692,1364
0.696,1362
0.696,1361
0.7,1359
0.7,1358
0.704,1356
0.706,1356
0.708,1355
0.708,1354
0.714,1351
0.714,1350
0.716,1349
0.716,1348
0.724,1344
0.724,1343
0.728,1341
0.728,1340
0.73,1339
0.73,1338
0.732,1337
0.732,1336
0.736,1334
0.738,1334
0.74,1333
0.75,1333
0.762,1339
0.762,1340
0.764,1341
0.764,1342
0.766,1343
0.766,1344
0.772,1347
0.772,1349
0.774,1350
0.774,1351
0.776,1352
0.776,1353
0.78,1355
0.78,1356
0.782,1357
0.782,1358
0.784,1359
0.784,1360
0.788,1362
0.788,1363
0.79,1364
0.79,1365
0.796,1368
0.796,1369
0.8,1371
0.808,1371
0.81,1372
0.82,1372
0.822,1373
0.826,1373
0.828,1374
0.836,1374
0.838,1375
0.844,1375
0.846,1376
0.852,1376
0.856,1374
0.856,1373
0.862,1370
0.864,1370
0.866,1369
0.87,1369
0.872,1368
0.878,1368
0.882,1370
0.886,1370
0.888,1371
0.89,1371
0.892,1372
0.894,1372
0.896,1373
0.9,1373
0.902,1374
0.922,1374
0.924,1375
0.926,1375
0.928,1374
0.934,1374
0.94,1371
0.942,1371
0.944,1372
0.944,1373
0.946,1374
0.946,1375
0.952,1378
0.952,1388
0.952,1377
0.944,1373
0.944,1371
0.938,1371
0.932,1374
0.928,1374
0.926,1375
0.924,1375
0.922,1374
0.902,1374
0.9,1373
0.898,1373
0.896,1372
0.892,1372
0.89,1371
0.888,1371
0.886,1370
0.884,1370
0.88,1368
0.87,1368
0.868,1369
0.866,1369
0.864,1370
0.86,1370
0.856,1372
0.856,1373
0.85,1376
0.846,1376
0.844,1375
0.838,1375
0.836,1374
0.834,1374
0.832,1373
0.83,1374
0.828,1374
0.826,1373
0.822,1373
0.82,1372
0.81,1372
0.808,1371
0.802,1371
0.794,1367
0.794,1366
0.79,1364
0.79,1363
0.788,1362
0.788,1361
0.784,1359
0.784,1358
0.782,1357
0.782,1356
0.78,1355
0.78,1354
0.776,1352
0.776,1351
0.774,1350
0.774,1349
0.772,1348
0.772,1347
0.77,1346
0.77,1345
0.764,1342
0.764,1340
0.762,1339
0.762,1338
0.754,1334
0.752,1334
0.75,1333
0.74,1333
0.738,1334
0.736,1333
0.732,1335
0.732,1337
0.728,1339
0.728,1340
0.724,1342
0.724,1343
0.716,1347
0.716,1348
0.714,1349
0.714,1350
0.708,1353
0.708,1354
0.704,1356
0.702,1356
0.7,1357
0.7,1358
0.696,1360
0.696,1361
0.692,1363
0.692,1365
0.688,1367
0.688,1368
0.686,1369
0.686,1370
0.684,1371
0.684,1374
0.682,1375
0.682,1381
0.68,1382
0.678,1381
0.678,1373
0.676,1372
0.676,1363
0.67,1363
0.67,1364
0.668,1365
0.668,1367
0.658,1372
0.624,1372
0.616,1368
0.612,1368
0.61,1367
0.608,1367
0.604,1365
0.6,1365
0.598,1366
0.596,1366
0.594,1367
0.588,1367
0.586,1368
0.584,1368
0.576,1372
0.57,1372
0.568,1371
0.56,1371
0.558,1372
0.532,1372
0.53,1371
0.526,1371
0.522,1369
0.518,1369
0.516,1368
0.51,1368
0.506,1366
0.504,1366
0.502,1365
0.502,1364
0.498,1362
0.498,1361
0.494,1359
0.494,1357
0.49,1355
0.49,1354
0.488,1353
0.488,1352
0.486,1351
0.486,1350
0.484,1349
0.484,1348
0.482,1347
0.482,1346
0.48,1345
0.48,1344
0.478,1343
0.478,1342
0.476,1341
0.476,1340
0.474,1339
0.474,1338
0.472,1337
0.472,1336
0.468,1334
0.468,1333
0.466,1332
0.466,1331
0.464,1330
0.46,1330
0.458,1329
0.208,1285
0.208,1287
0.206,1288
0.206,1363
0.204,1364
0.192,1364
0.19,1365
0.19,1367
0.194,1367
0.196,1368
0.212,1368
0.212,1366
0.214,1365
0.214,1290
0.216,1289
0.236,1289
0.238,1290
0.238,1315
0.24,1316
0.24,1318
0.238,1319
0.238,1355
0.24,1356
0.24,1358
0.238,1359
0.238,1363
0.24,1364
0.24,1367
0.244,1367
0.246,1368
0.258,1368
0.26,1367
0.264,1367
0.262,1366
0.264,1365
0.262,1364
0.25,1364
0.248,1363
0.248,1362
0.246,1361
0.248,1360
0.248,1358
0.246,1357
0.248,1356
0.248,1354
0.246,1353
0.246,1321
0.248,1320
0.248,1318
0.246,1317
0.248,1316
0.248,1314
0.246,1313
0.246,1286
0.244,1285
3.94,1050
3.938,1051
3.934,1051
3.914,1061
3.914,1062
3.908,1065
3.906,1065
3.904,1066
3.9,1066
3.898,1067
3.892,1067
3.888,1069
3.886,1069
3.884,1070
3.884,1071
3.882,1072
3.882,1073
3.88,1074
3.88,1078
3.878,1079
3.878,1081
3.878,1080
3.88,1079
3.88,1075
3.882,1074
3.882,1073
3.884,1072
3.884,1071
3.888,1069
3.89,1069
3.894,1067
3.898,1067
3.9,1066
3.904,1066
3.906,1065
3.91,1065
3.914,1063
3.914,1062
3.936,1051
3.938,1051
3.94,1050
3.942,1050
3.948,1053
3.952,1053
3.954,1054
3.956,1054
3.96,1056
3.964,1056
3.97,1059
3.972,1059
3.974,1060
3.976,1060
3.98,1062
3.982,1062
3.986,1064
3.988,1064
3.99,1065
4.014,1065
4.016,1064
4.018,1064
4.02,1065
4.03,1065
4.032,1066
4.036,1066
4.038,1067
4.042,1067
4.044,1068
4.048,1068
4.05,1067
4.054,1067
4.056,1066
4.066,1066
4.068,1065
4.07,1066
4.078,1066
4.088,1071
4.092,1071
4.096,1073
4.106,1073
4.108,1072
4.116,1072
4.118,1071
4.12,1071
4.122,1072
4.124,1072
4.122,1072
4.12,1071
4.118,1071
4.116,1072
4.108,1072
4.106,1073
4.098,1073
4.096,1072
4.094,1072
4.092,1071
4.09,1071
4.08,1066
4.07,1066
4.068,1065
4.066,1066
4.056,1066
4.054,1067
4.05,1067
4.048,1068
4.044,1068
4.042,1067
4.04,1067
4.038,1066
4.032,1066
4.03,1065
4.02,1065
4.018,1064
4.016,1064
4.014,1065
3.99,1065
3.984,1062
3.982,1062
3.978,1060
3.976,1060
3.974,1059
3.972,1059
3.968,1057
3.966,1057
3.964,1056
3.962,1056
3.958,1054
3.954,1054
3.952,1053
3.95,1053
3.946,1051
3.944,1051
3.942,1050
1.328,1044
3.308,1039
3.3,1043
3.3,1044
3.298,1045
3.298,1048
3.296,1049
3.296,1055
3.298,1056
3.298,1057
3.302,1059
3.312,1059
3.318,1056
3.318,1055
3.32,1054
3.322,1055
3.32,1054
3.32,1051
3.318,1050
3.318,1048
3.314,1046
3.308,1046
3.312,1046
3.318,1049
3.318,1050
3.32,1051
3.32,1054
3.318,1055
3.318,1056
3.312,1059
3.308,1059
3.306,1058
3.306,1056
3.302,1054
3.302,1050
3.304,1049
3.308,1049
3.314,1052
3.314,1055
3.312,1056
3.31,1056
3.31,1057
3.314,1055
3.314,1051
3.31,1049
3.306,1049
3.304,1048
3.304,1045
3.306,1044
3.308,1044
3.314,1041
3.318,1041
3.318,1039
3.284,1039
3.286,1040
3.284,1041
3.286,1042
3.286,1043
3.284,1044
3.284,1046
3.282,1047
3.282,1048
3.28,1049
3.28,1051
3.28,1050
3.282,1049
3.282,1047
3.284,1046
3.284,1044
3.288,1042
3.29,1043
3.29,1045
3.288,1046
3.288,1048
3.286,1049
3.286,1050
3.284,1051
3.284,1053
3.284,1052
3.286,1051
3.286,1049
3.288,1048
3.288,1047
3.29,1046
3.29,1044
3.296,1041
3.294,1041
3.29,1043
3.286,1041
3.286,1040
3.288,1039
3.294,1039
2.318,1039
2.314,1041
2.316,1040
2.32,1040
2.322,1039
2.324,1039
2.332,1043
2.332,1044
2.33,1045
2.33,1047
2.328,1048
2.324,1046
2.324,1045
2.326,1044
2.326,1043
2.324,1042
2.32,1042
2.318,1043
2.314,1043
2.318,1043
2.32,1042
2.322,1042
2.326,1044
2.324,1045
2.324,1046
2.32,1048
2.322,1048
2.324,1049
2.322,1050
2.324,1050
2.328,1052
2.328,1055
2.326,1056
2.324,1056
2.326,1056
2.328,1055
2.328,1051
2.322,1048
2.324,1047
2.326,1047
2.334,1051
2.334,1054
2.332,1055
2.332,1056
2.33,1057
2.332,1057
2.332,1056
2.334,1055
2.334,1051
2.332,1050
2.332,1049
2.33,1048
2.33,1046
2.332,1045
2.332,1043
2.33,1042
2.33,1041
2.326,1039
2.298,1039
2.298,1041
2.3,1041
2.302,1042
2.302,1043
2.3,1044
2.3,1046
2.298,1047
2.298,1048
2.296,1049
2.296,1051
2.296,1050
2.298,1049
2.298,1047
2.3,1046
2.3,1044
2.304,1042
2.306,1043
2.306,1045
2.304,1046
2.304,1048
2.302,1049
2.302,1050
2.3,1051
2.3,1053
2.3,1052
2.302,1051
2.302,1049
2.304,1048
2.304,1047
2.306,1046
2.306,1044
2.308,1043
2.308,1042
2.31,1041
2.31,1039
0.34,1038
0.338,1039
0.328,1039
0.332,1039
0.336,1041
0.336,1057
0.332,1059
0.328,1057
0.328,1041
0.326,1041
0.328,1042
0.328,1058
0.33,1058
0.332,1059
0.334,1058
0.336,1058
0.336,1042
0.338,1041
0.342,1041
0.344,1042
0.344,1058
0.342,1059
0.34,1059
0.344,1059
0.346,1058
0.348,1059
0.35,1058
0.352,1058
0.352,1042
0.354,1041
0.356,1041
0.356,1039
0.358,1038
0.36,1038
0.358,1038
0.356,1039
0.342,1039
0.322,1038
0.32,1039
0.312,1039
0.31,1040
0.31,1059
0.312,1058
0.314,1059
0.316,1058
0.318,1058
0.318,1042
0.32,1041
0.322,1041
0.32,1041
0.318,1040
0.322,1038
0.324,1038
0.742,1033
0.74,1034
0.736,1034
0.734,1035
0.732,1035
0.732,1036
0.728,1038
0.728,1040
0.722,1043
0.722,1044
0.716,1047
0.716,1048
0.714,1049
0.714,1050
0.708,1053
0.708,1054
0.704,1056
0.702,1056
0.698,1058
0.698,1059
0.696,1060
0.696,1061
0.694,1062
0.694,1063
0.69,1065
0.69,1067
0.686,1069
0.686,1070
0.684,1071
0.684,1075
0.682,1076
0.682,1077
0.684,1076
0.684,1072
0.686,1071
0.686,1070
0.688,1069
0.688,1068
0.69,1067
0.69,1066
0.694,1064
0.694,1063
0.696,1062
0.696,1061
0.698,1060
0.698,1059
0.704,1056
0.706,1056
0.708,1055
0.708,1054
0.714,1051
0.714,1050
0.716,1049
0.716,1048
0.722,1045
0.722,1044
0.726,1042
0.726,1041
0.728,1040
0.728,1039
0.732,1037
0.732,1036
0.734,1035
0.736,1035
0.738,1034
0.74,1034
0.742,1033
0.746,1033
0.748,1034
0.752,1034
0.762,1039
0.762,1040
0.764,1041
0.764,1042
0.768,1044
0.768,1045
0.772,1047
0.772,1049
0.774,1050
0.774,1051
0.776,1052
0.776,1053
0.78,1055
0.78,1056
0.782,1057
0.782,1058
0.786,1060
0.786,1061
0.788,1062
0.788,1063
0.792,1065
0.792,1066
0.796,1068
0.796,1069
0.8,1071
0.806,1071
0.808,1072
0.814,1072
0.816,1073
0.818,1072
0.82,1073
0.828,1073
0.83,1074
0.836,1074
0.838,1075
0.854,1075
0.856,1074
0.856,1073
0.862,1070
0.864,1070
0.866,1069
0.87,1069
0.872,1068
0.878,1068
0.882,1070
0.886,1070
0.89,1072
0.892,1072
0.894,1073
0.9,1073
0.902,1074
0.934,1074
0.94,1071
0.942,1071
0.944,1072
0.944,1073
0.946,1074
0.946,1075
0.952,1078
0.952,1088
0.952,1077
0.944,1073
0.944,1071
0.938,1071
0.932,1074
0.902,1074
0.9,1073
0.896,1073
0.894,1072
0.892,1072
0.89,1071
0.888,1071
0.886,1070
0.884,1070
0.88,1068
0.87,1068
0.868,1069
0.866,1069
0.864,1070
0.86,1070
0.856,1072
0.856,1073
0.852,1075
0.838,1075
0.836,1074
0.83,1074
0.828,1073
0.82,1073
0.818,1072
0.816,1073
0.814,1072
0.81,1072
0.808,1071
0.802,1071
0.796,1068
0.796,1067
0.792,1065
0.792,1064
0.788,1062
0.788,1061
0.786,1060
0.786,1059
0.782,1057
0.782,1056
0.78,1055
0.78,1054
0.776,1052
0.776,1051
0.774,1050
0.774,1049
0.772,1048
0.772,1047
0.77,1046
0.77,1045
0.768,1044
0.768,1043
0.764,1041
0.764,1040
0.762,1039
0.762,1038
0.754,1034
0.748,1034
0.746,1033
0.444,1029
0.442,1030
0.442,1031
0.44,1032
0.44,1033
0.434,1036
0.434,1037
0.432,1038
0.432,1039
0.43,1040
0.43,1041
0.424,1044
0.424,1045
0.422,1046
0.422,1047
0.408,1054
0.408,1055
0.4,1059
0.4,1060
0.398,1061
0.398,1062
0.392,1065
0.392,1066
0.39,1067
0.39,1069
0.388,1070
0.388,1077
0.388,1071
0.39,1070
0.39,1068
0.392,1067
0.392,1066
0.398,1063
0.398,1062
0.4,1061
0.4,1060
0.408,1056
0.408,1055
0.422,1048
0.422,1047
0.424,1046
0.424,1045
0.43,1042
0.43,1041
0.432,1040
0.432,1039
0.434,1038
0.434,1037
0.44,1034
0.44,1033
0.442,1032
0.442,1031
0.446,1029
0.458,1029
0.46,1030
0.462,1030
0.468,1033
0.468,1035
0.474,1038
0.474,1040
0.476,1041
0.476,1042
0.48,1044
0.48,1046
0.482,1047
0.482,1048
0.484,1049
0.484,1050
0.486,1051
0.486,1052
0.488,1053
0.488,1054
0.49,1055
0.49,1056
0.494,1058
0.494,1059
0.496,1060
0.496,1061
0.498,1062
0.498,1063
0.502,1065
0.502,1066
0.504,1066
0.506,1067
0.51,1067
0.512,1068
0.516,1068
0.518,1069
0.52,1069
0.522,1070
0.526,1070
0.528,1071
0.532,1071
0.534,1072
0.56,1072
0.562,1071
0.566,1071
0.568,1072
0.58,1072
0.58,1071
0.588,1067
0.594,1067
0.596,1066
0.6,1066
0.602,1065
0.606,1067
0.61,1067
0.612,1068
0.614,1068
0.622,1072
0.636,1072
0.638,1073
0.642,1073
0.644,1072
0.652,1072
0.654,1073
0.656,1072
0.66,1072
0.666,1069
0.666,1068
0.668,1067
0.668,1065
0.67,1064
0.67,1063
0.672,1062
0.676,1064
0.676,1070
0.678,1071
0.678,1082
0.682,1082
0.682,1079
0.682,1081
0.68,1082
0.678,1081
0.678,1071
0.676,1070
0.676,1063
0.674,1062
0.67,1062
0.67,1064
0.668,1065
0.668,1067
0.658,1072
0.656,1072
0.654,1073
0.652,1072
0.644,1072
0.642,1073
0.638,1073
0.636,1072
0.624,1072
0.616,1068
0.612,1068
0.61,1067
0.608,1067
0.606,1066
0.604,1066
0.602,1065
0.6,1065
0.598,1066
0.596,1066
0.594,1067
0.588,1067
0.586,1068
0.584,1068
0.58,1070
0.58,1071
0.578,1072
0.57,1072
0.568,1071
0.562,1071
0.56,1072
0.534,1072
0.532,1071
0.528,1071
0.526,1070
0.524,1070
0.522,1069
0.518,1069
0.516,1068
0.512,1068
0.51,1067
0.508,1067
0.506,1066
0.504,1066
0.502,1065
0.502,1064
0.498,1062
0.498,1061
0.496,1060
0.496,1059
0.494,1058
0.494,1057
0.49,1055
0.49,1054
0.488,1053
0.488,1052
0.486,1051
0.486,1050
0.484,1049
0.484,1048
0.482,1047
0.482,1046
0.48,1045
0.48,1044
0.478,1043
0.478,1042
0.474,1040
0.474,1037
0.468,1034
0.468,1033
0.466,1032
0.466,1031
0.464,1030
0.46,1030
0.458,1029
0.214,985
0.212,986
0.208,986
0.208,987
0.206,988
0.206,1062
0.204,1063
0.198,1063
0.196,1064
0.192,1064
0.19,1065
0.19,1067
0.196,1067
0.198,1068
0.2,1068
0.202,1067
0.204,1068
0.206,1068
0.208,1067
0.212,1067
0.212,1065
0.214,1064
0.214,990
0.216,989
0.236,989
0.238,990
0.238,997
0.24,998
0.24,1000
0.238,1001
0.238,1037
0.24,1038
0.24,1040
0.238,1041
0.238,1063
0.24,1064
0.24,1067
0.246,1067
0.248,1068
0.25,1067
0.252,1068
0.254,1068
0.256,1067
0.262,1067
0.262,1064
0.26,1063
0.258,1064
0.256,1063
0.25,1063
0.248,1062
0.248,1061
0.246,1060
0.246,1043
0.248,1042
0.248,1040
0.246,1039
0.248,1038
0.248,1036
0.246,1035
0.246,1003
0.248,1002
0.248,1000
0.246,999
0.248,998
0.248,996
0.246,995
0.246,986
0.24,986
0.238,985
4.138,981
4.136,982
4.136,1001
4.134,1002
4.134,1026
4.132,1027
4.132,1047
4.13,1048
4.13,1063
4.128,1064
4.128,1072
4.128,1064
4.13,1063
4.13,1048
4.132,1047
4.132,1027
4.134,1026
4.134,1002
4.136,1001
4.136,983
4.14,981
4.142,981
4.144,982
4.144,987
4.146,988
4.146,993
4.148,994
4.146,995
4.148,996
4.148,997
4.146,998
4.146,1000
4.148,1001
4.148,1002
4.146,1003
4.148,1004
4.148,1005
4.146,1006
4.146,1007
4.148,1008
4.148,1010
4.15,1011
4.15,1035
4.152,1036
4.152,1060
4.154,1061
4.154,1075
4.156,1076
4.156,1086
4.158,1086
4.16,1087
4.162,1086
4.162,1082
4.164,1081
4.164,1080
4.166,1079
4.166,1078
4.17,1076
4.174,1076
4.176,1075
4.178,1075
4.18,1074
4.186,1074
4.188,1073
4.19,1073
4.206,1065
4.206,1064
4.214,1060
4.216,1060
4.22,1058
4.228,1058
4.23,1059
4.232,1059
4.234,1060
4.236,1060
4.24,1062
4.24,1063
4.238,1064
4.234,1064
4.232,1063
4.23,1063
4.228,1062
4.22,1062
4.188,1078
4.182,1078
4.18,1079
4.176,1079
4.174,1080
4.172,1080
4.172,1081
4.17,1082
4.17,1083
4.168,1084
4.168,1087
4.166,1088
4.166,1090
4.164,1091
4.164,1092
4.16,1094
4.158,1094
4.154,1092
4.154,1091
4.152,1090
4.152,1089
4.15,1088
4.15,1083
4.148,1082
4.148,1074
4.146,1073
4.146,1060
4.144,1059
4.144,1048
4.146,1047
4.146,1045
4.144,1044
4.144,1013
4.142,1012
4.14,1013
4.14,1028
4.138,1029
4.138,1042
4.14,1043
4.138,1044
4.138,1062
4.136,1063
4.136,1071
4.134,1072
4.134,1074
4.13,1076
4.124,1076
4.122,1075
4.112,1075
4.11,1076
4.104,1076
4.102,1077
4.098,1077
4.096,1076
4.094,1076
4.092,1075
4.088,1075
4.086,1074
4.084,1074
4.08,1072
4.08,1071
4.078,1070
4.07,1070
4.068,1069
4.064,1069
4.062,1070
4.052,1070
4.05,1071
4.048,1071
4.046,1072
4.044,1071
4.038,1071
4.036,1070
4.03,1070
4.028,1069
4.024,1069
4.022,1068
4.016,1068
4.014,1069
4.01,1069
4.008,1068
4.006,1069
3.994,1069
3.992,1068
3.986,1068
3.982,1066
3.98,1066
3.976,1064
3.974,1064
3.972,1063
3.97,1063
3.964,1060
3.96,1060
3.956,1058
3.954,1058
3.952,1057
3.95,1057
3.948,1056
3.946,1056
3.944,1055
3.936,1055
3.93,1058
3.93,1059
3.912,1068
3.91,1068
3.908,1069
3.906,1069
3.904,1070
3.902,1070
3.9,1071
3.896,1071
3.894,1072
3.892,1072
3.89,1073
3.89,1074
3.888,1075
3.888,1077
3.886,1078
3.886,1080
3.884,1081
3.884,1084
3.882,1085
3.882,1086
3.878,1088
3.874,1088
3.872,1087
3.872,1086
3.87,1085
3.87,1083
3.868,1082
3.868,1076
3.866,1075
3.866,1067
3.864,1066
3.864,1054
3.862,1053
3.862,1041
3.864,1040
3.864,1037
3.862,1036
3.862,1009
3.86,1008
3.858,1009
3.858,1017
3.856,1018
3.856,1037
3.858,1038
3.858,1039
3.856,1040
3.856,1054
3.854,1055
3.854,1063
3.852,1064
3.852,1066
3.85,1067
3.85,1068
3.848,1069
3.83,1069
3.828,1070
3.818,1070
3.816,1069
3.806,1069
3.804,1068
3.802,1068
3.798,1066
3.794,1066
3.792,1065
3.784,1065
3.78,1067
3.776,1067
3.77,1070
3.756,1070
3.754,1069
3.75,1069
3.748,1070
3.74,1070
3.738,1069
3.734,1069
3.732,1068
3.728,1068
3.726,1067
3.722,1067
3.72,1068
3.718,1068
3.716,1069
3.708,1069
3.706,1070
3.696,1070
3.694,1069
3.688,1069
3.686,1068
3.684,1068
3.68,1066
3.676,1066
3.674,1065
3.67,1065
3.668,1064
3.666,1064
3.66,1061
3.658,1061
3.656,1060
3.654,1060
3.65,1058
3.648,1058
3.646,1057
3.64,1057
3.636,1059
3.634,1059
3.62,1066
3.62,1067
3.61,1072
3.608,1072
3.604,1074
3.6,1074
3.596,1076
3.594,1076
3.592,1077
3.592,1078
3.59,1079
3.59,1081
3.588,1082
3.588,1085
3.586,1086
3.586,1089
3.578,1093
3.572,1090
3.572,1089
3.57,1088
3.57,1083
3.568,1082
3.568,1074
3.566,1073
3.566,1061
3.564,1060
3.564,1023
3.562,1022
3.56,1023
3.56,1033
3.558,1034
3.558,1063
3.556,1064
3.556,1071
3.554,1072
3.554,1074
3.552,1075
3.552,1076
3.548,1078
3.544,1076
3.536,1076
3.534,1077
3.528,1077
3.526,1078
3.524,1077
3.518,1077
3.516,1078
3.508,1078
3.506,1077
3.506,1076
3.502,1074
3.502,1073
3.49,1073
3.486,1075
3.478,1075
3.472,1078
3.466,1078
3.464,1079
3.422,1079
3.42,1078
3.39,1078
3.388,1077
3.386,1077
3.384,1076
3.38,1076
3.378,1075
3.376,1075
3.37,1072
3.368,1072
3.358,1067
3.356,1067
3.354,1066
3.352,1066
3.346,1063
3.344,1063
3.338,1060
3.326,1060
3.326,1061
3.322,1063
3.322,1064
3.302,1074
3.3,1074
3.296,1076
3.294,1076
3.292,1077
3.288,1077
3.282,1080
3.282,1082
3.28,1083
3.28,1086
3.278,1087
3.278,1090
3.276,1091
3.276,1092
3.274,1093
3.268,1093
3.266,1092
3.266,1091
3.264,1090
3.264,1086
3.262,1085
3.262,1077
3.26,1076
3.258,1076
3.258,1094
3.26,1095
3.26,1097
3.258,1098
3.26,1099
3.26,1101
3.258,1102
3.26,1103
3.26,1105
3.258,1106
3.258,1108
3.256,1109
3.254,1109
3.252,1108
3.252,1106
3.25,1105
3.25,1088
3.252,1087
3.252,1085
3.25,1084
3.25,1062
3.252,1061
3.252,1035
3.248,1035
3.248,1039
3.246,1040
3.246,1053
3.244,1054
3.244,1061
3.242,1062
3.242,1063
3.238,1065
3.236,1065
3.234,1066
3.224,1066
3.222,1067
3.198,1067
3.196,1066
3.194,1066
3.188,1063
3.184,1063
3.182,1062
3.18,1062
3.176,1060
3.172,1060
3.17,1059
3.168,1060
3.156,1060
3.154,1059
3.15,1059
3.144,1056
3.142,1056
3.14,1055
3.13,1055
3.128,1056
3.126,1056
3.116,1061
3.114,1061
3.112,1062
3.102,1062
3.1,1061
3.092,1061
3.092,1062
3.076,1070
3.07,1070
3.068,1071
3.064,1071
3.062,1072
3.06,1072
3.058,1073
3.058,1074
3.052,1077
3.052,1078
3.048,1080
3.048,1081
3.038,1086
3.036,1086
3.034,1087
3.032,1087
3.03,1086
3.024,1086
3.02,1084
3.016,1084
3.014,1083
3.008,1083
3.006,1084
3.006,1088
3.004,1089
3.004,1095
3.002,1096
3.002,1104
3.0,1105
3.0,1114
2.998,1115
2.998,1121
2.996,1122
2.996,1128
2.994,1129
2.994,1133
2.992,1134
2.992,1137
2.988,1139
2.986,1139
2.984,1138
2.984,1136
2.982,1135
2.982,1130
2.98,1129
2.98,1127
2.982,1126
2.98,1125
2.98,1115
2.978,1114
2.978,1095
2.976,1094
2.976,1070
2.974,1069
2.974,1041
2.972,1040
2.972,1036
2.97,1035
2.968,1036
2.968,1055
2.966,1056
2.966,1059
2.958,1063
2.95,1063
2.948,1064
2.942,1064
2.94,1065
2.92,1065
2.914,1062
2.912,1062
2.91,1061
2.908,1061
2.906,1060
2.904,1060
2.9,1058
2.888,1058
2.886,1059
2.882,1059
2.88,1058
2.876,1058
2.87,1055
2.866,1055
2.862,1053
2.86,1053
2.858,1052
2.848,1052
2.842,1055
2.84,1055
2.838,1056
2.838,1057
2.832,1060
2.83,1060
2.828,1061
2.826,1061
2.824,1062
2.818,1062
2.816,1063
2.812,1063
2.812,1064
2.796,1072
2.794,1072
2.792,1073
2.788,1073
2.786,1074
2.782,1074
2.78,1075
2.778,1075
2.756,1086
2.75,1086
2.748,1085
2.746,1085
2.744,1084
2.742,1084
2.74,1083
2.736,1083
2.732,1081
2.726,1081
2.726,1083
2.724,1084
2.724,1089
2.722,1090
2.722,1098
2.72,1099
2.72,1108
2.718,1109
2.718,1117
2.716,1118
2.716,1126
2.714,1127
2.714,1135
2.712,1136
2.712,1139
2.71,1140
2.71,1142
2.708,1143
2.704,1143
2.702,1142
2.702,1140
2.7,1139
2.7,1135
2.698,1134
2.698,1120
2.696,1119
2.696,1097
2.694,1096
2.694,1074
2.692,1073
2.692,1039
2.688,1039
2.686,1040
2.686,1053
2.684,1054
2.686,1055
2.684,1056
2.684,1059
2.682,1060
2.682,1061
2.68,1062
2.67,1062
2.668,1063
2.666,1063
2.664,1064
2.656,1064
2.654,1065
2.644,1065
2.642,1064
2.638,1064
2.636,1063
2.634,1063
2.63,1061
2.626,1061
2.624,1060
2.612,1060
2.61,1061
2.606,1061
2.604,1062
2.602,1062
2.6,1063
2.594,1063
2.592,1062
2.59,1062
2.588,1061
2.586,1061
2.584,1060
2.582,1060
2.58,1059
2.576,1059
2.574,1058
2.572,1058
2.57,1057
2.568,1057
2.562,1054
2.56,1054
2.558,1053
2.548,1053
2.546,1054
2.544,1054
2.54,1056
2.538,1056
2.53,1060
2.528,1060
2.526,1061
2.516,1061
2.512,1063
2.51,1063
2.498,1069
2.492,1069
2.49,1070
2.484,1070
2.482,1071
2.48,1071
2.476,1073
2.474,1073
2.47,1075
2.47,1076
2.456,1083
2.454,1083
2.452,1084
2.444,1084
2.44,1082
2.438,1082
2.436,1081
2.43,1081
2.428,1082
2.426,1082
2.424,1083
2.424,1087
2.422,1088
2.422,1096
2.42,1097
2.42,1106
2.418,1107
2.418,1116
2.416,1117
2.416,1124
2.414,1125
2.414,1131
2.412,1132
2.412,1136
2.41,1137
2.41,1139
2.408,1140
2.404,1140
2.402,1139
2.402,1137
2.4,1136
2.4,1131
2.398,1130
2.398,1113
2.396,1112
2.396,1092
2.394,1091
2.394,1069
2.392,1068
2.392,1031
2.39,1030
2.388,1031
2.388,1036
2.386,1037
2.386,1056
2.384,1057
2.384,1058
2.382,1059
2.382,1060
2.376,1063
2.374,1063
2.372,1064
2.364,1064
2.362,1065
2.358,1065
2.356,1066
2.352,1066
2.35,1067
2.344,1067
2.342,1066
2.34,1066
2.338,1065
2.336,1065
2.334,1064
2.328,1064
2.322,1061
2.316,1061
2.314,1062
2.31,1062
2.306,1064
2.304,1064
2.302,1065
2.286,1065
2.284,1064
2.276,1064
2.276,1107
2.272,1109
2.27,1108
2.27,1107
2.268,1106
2.268,1076
2.26,1076
2.258,1077
2.256,1077
2.254,1076
2.25,1076
2.248,1075
2.246,1075
2.244,1074
2.234,1074
2.232,1073
2.226,1073
2.224,1072
2.222,1072
2.22,1071
2.218,1071
2.216,1070
2.208,1070
2.206,1069
2.204,1069
2.194,1064
2.194,1063
2.192,1062
2.192,1061
2.19,1060
2.19,1059
2.188,1058
2.188,1057
2.186,1056
2.186,1055
2.184,1054
2.184,1052
2.18,1050
2.18,1049
2.178,1048
2.178,1046
2.17,1042
2.17,1041
2.166,1039
2.154,1039
2.152,1040
2.152,1041
2.148,1043
2.148,1045
2.14,1049
2.14,1050
2.138,1051
2.138,1052
2.136,1053
2.136,1054
2.13,1057
2.128,1057
2.122,1060
2.122,1061
2.116,1064
2.116,1065
2.114,1066
2.114,1067
2.112,1068
2.112,1070
2.11,1071
2.11,1072
2.108,1073
2.108,1074
2.104,1076
2.104,1077
2.098,1080
2.098,1081
2.094,1083
2.092,1083
2.088,1081
2.088,1080
2.086,1079
2.086,1075
2.084,1074
2.084,1073
2.086,1072
2.086,1067
2.084,1066
2.082,1067
2.082,1071
2.078,1073
2.078,1074
2.076,1075
2.076,1076
2.072,1078
2.07,1077
2.066,1077
2.064,1078
2.062,1078
2.06,1077
2.056,1077
2.054,1078
2.05,1078
2.046,1080
2.032,1080
2.03,1079
2.028,1079
2.024,1077
2.024,1076
2.02,1074
2.008,1074
2.006,1075
2.002,1075
1.994,1079
1.992,1079
1.99,1080
1.984,1080
1.982,1079
1.978,1079
1.976,1080
1.972,1080
1.97,1079
1.96,1079
1.958,1078
1.95,1078
1.948,1077
1.94,1077
1.936,1075
1.934,1075
1.932,1074
1.93,1074
1.914,1066
1.914,1064
1.91,1062
1.91,1061
1.908,1060
1.908,1058
1.902,1055
1.902,1054
1.898,1052
1.898,1051
1.894,1049
1.894,1048
1.892,1047
1.892,1046
1.89,1045
1.89,1044
1.888,1043
1.878,1043
1.874,1045
1.874,1046
1.87,1048
1.87,1049
1.864,1052
1.864,1054
1.862,1055
1.862,1056
1.856,1059
1.854,1059
1.854,1060
1.844,1065
1.842,1065
1.838,1067
1.838,1068
1.836,1069
1.836,1070
1.834,1071
1.834,1073
1.832,1074
1.832,1076
1.824,1080
1.822,1080
1.818,1082
1.816,1082
1.812,1080
1.812,1079
1.81,1078
1.81,1065
1.808,1064
1.806,1065
1.806,1070
1.804,1071
1.804,1074
1.802,1075
1.802,1076
1.796,1079
1.794,1079
1.792,1080
1.766,1080
1.764,1079
1.758,1079
1.746,1073
1.744,1073
1.742,1072
1.74,1072
1.738,1071
1.734,1071
1.73,1073
1.728,1073
1.724,1075
1.722,1075
1.72,1076
1.72,1077
1.716,1079
1.712,1079
1.71,1078
1.704,1078
1.702,1077
1.698,1077
1.696,1076
1.694,1077
1.692,1076
1.684,1076
1.682,1077
1.68,1076
1.678,1077
1.676,1076
1.672,1076
1.67,1075
1.666,1075
1.664,1074
1.66,1074
1.654,1071
1.654,1069
1.65,1067
1.65,1066
1.648,1065
1.648,1064
1.644,1062
1.644,1061
1.642,1060
1.642,1059
1.638,1057
1.638,1056
1.634,1054
1.634,1053
1.632,1052
1.632,1051
1.626,1048
1.626,1047
1.622,1045
1.622,1043
1.618,1043
1.616,1042
1.61,1042
1.608,1043
1.606,1043
1.606,1044
1.604,1045
1.604,1046
1.602,1047
1.602,1048
1.598,1050
1.598,1052
1.58,1061
1.58,1062
1.574,1065
1.572,1065
1.572,1066
1.568,1068
1.568,1069
1.566,1070
1.566,1072
1.564,1073
1.564,1074
1.562,1075
1.552,1075
1.552,1076
1.548,1078
1.546,1078
1.544,1077
1.544,1075
1.542,1074
1.542,1067
1.538,1067
1.538,1072
1.536,1073
1.536,1074
1.534,1075
1.534,1076
1.532,1077
1.532,1078
1.528,1080
1.524,1080
1.522,1079
1.516,1079
1.514,1078
1.504,1078
1.502,1077
1.5,1077
1.498,1076
1.496,1076
1.494,1077
1.488,1077
1.486,1076
1.486,1075
1.48,1072
1.478,1072
1.476,1071
1.466,1071
1.462,1073
1.454,1073
1.454,1074
1.446,1078
1.434,1078
1.432,1079
1.426,1079
1.422,1077
1.418,1077
1.416,1078
1.412,1078
1.408,1076
1.406,1076
1.404,1075
1.394,1075
1.392,1076
1.386,1076
1.384,1075
1.38,1075
1.378,1074
1.376,1074
1.37,1071
1.368,1071
1.358,1066
1.358,1065
1.356,1064
1.356,1063
1.352,1061
1.352,1060
1.35,1059
1.35,1058
1.348,1057
1.348,1055
1.346,1054
1.346,1053
1.34,1050
1.34,1048
1.338,1047
1.338,1046
1.33,1042
1.33,1041
1.326,1041
1.326,1042
1.328,1041
1.332,1043
1.332,1044
1.336,1046
1.334,1047
1.332,1047
1.33,1046
1.332,1047
1.332,1048
1.334,1049
1.334,1051
1.336,1052
1.336,1053
1.34,1055
1.34,1056
1.338,1057
1.336,1057
1.332,1055
1.332,1054
1.33,1053
1.33,1052
1.328,1051
1.328,1049
1.326,1048
1.326,1047
1.322,1045
1.322,1042
1.318,1042
1.316,1043
1.316,1044
1.308,1048
1.308,1057
1.306,1058
1.304,1058
1.302,1057
1.302,1054
1.298,1054
1.296,1055
1.296,1057
1.294,1058
1.294,1059
1.292,1060
1.292,1107
1.288,1109
1.286,1108
1.286,1107
1.284,1106
1.284,1061
1.28,1061
1.276,1063
1.276,1065
1.27,1068
1.27,1069
1.268,1070
1.268,1071
1.266,1072
1.266,1075
1.264,1076
1.264,1085
1.262,1086
1.262,1091
1.26,1092
1.26,1096
1.258,1097
1.258,1098
1.256,1099
1.254,1099
1.252,1098
1.252,1097
1.25,1096
1.25,1085
1.248,1084
1.248,1082
1.242,1079
1.23,1079
1.228,1078
1.202,1078
1.196,1075
1.194,1075
1.192,1074
1.184,1074
1.182,1073
1.17,1073
1.168,1074
1.164,1074
1.16,1076
1.158,1076
1.154,1078
1.138,1078
1.136,1077
1.13,1077
1.128,1078
1.106,1078
1.104,1077
1.094,1077
1.092,1076
1.09,1076
1.088,1075
1.084,1075
1.082,1074
1.078,1074
1.076,1073
1.07,1073
1.064,1070
1.064,1069
1.058,1066
1.058,1065
1.056,1064
1.056,1063
1.054,1062
1.054,1061
1.052,1060
1.052,1058
1.048,1056
1.048,1055
1.046,1054
1.046,1053
1.044,1052
1.044,1050
1.04,1048
1.04,1047
1.038,1046
1.038,1045
1.034,1043
1.034,1041
1.024,1036
1.018,1036
1.018,1037
1.01,1041
1.01,1042
1.008,1043
1.008,1044
1.004,1046
1.004,1047
1.002,1048
1.002,1049
1.0,1050
1.0,1051
0.98,1061
0.98,1062
0.978,1063
0.978,1065
0.974,1067
0.974,1069
0.972,1070
0.972,1072
0.97,1073
0.97,1074
0.968,1075
0.968,1076
0.966,1077
0.966,1080
0.964,1081
0.964,1088
0.962,1089
0.962,1093
0.96,1094
0.96,1100
0.958,1101
0.958,1103
0.956,1104
0.954,1104
0.95,1102
0.95,1100
0.948,1099
0.948,1092
0.946,1091
0.946,1081
0.94,1078
0.894,1078
0.892,1077
0.892,1076
0.89,1076
0.886,1074
0.882,1074
0.878,1072
0.87,1072
0.868,1073
0.864,1073
0.864,1074
0.862,1075
0.862,1076
0.856,1079
0.834,1079
0.832,1078
0.82,1078
0.818,1077
0.812,1077
0.808,1075
0.802,1075
0.8,1074
0.798,1074
0.788,1069
0.788,1068
0.782,1065
0.782,1064
0.78,1063
0.78,1062
0.776,1060
0.776,1059
0.774,1058
0.774,1056
0.768,1053
0.768,1052
0.766,1051
0.766,1050
0.764,1049
0.764,1048
0.762,1047
0.762,1046
0.76,1045
0.76,1044
0.758,1043
0.758,1042
0.756,1041
0.756,1040
0.754,1040
0.75,1038
0.746,1038
0.744,1037
0.742,1038
0.738,1038
0.738,1039
0.736,1040
0.736,1041
0.73,1044
0.73,1045
0.728,1046
0.728,1047
0.722,1050
0.722,1051
0.716,1054
0.716,1055
0.704,1061
0.704,1062
0.7,1064
0.7,1065
0.698,1066
0.698,1067
0.696,1068
0.696,1069
0.694,1070
0.694,1071
0.692,1072
0.692,1073
0.69,1074
0.69,1076
0.688,1077
0.688,1083
0.686,1084
0.686,1087
0.684,1088
0.684,1091
0.68,1093
0.678,1093
0.674,1091
0.674,1089
0.672,1088
0.672,1077
0.67,1076
0.67,1074
0.668,1075
0.666,1074
0.664,1075
0.664,1076
0.662,1077
0.646,1077
0.644,1076
0.642,1077
0.64,1076
0.638,1077
0.636,1076
0.634,1077
0.626,1077
0.622,1075
0.62,1075
0.616,1073
0.614,1073
0.612,1072
0.61,1072
0.608,1071
0.592,1071
0.59,1072
0.588,1072
0.582,1075
0.58,1075
0.578,1076
0.568,1076
0.566,1075
0.564,1076
0.552,1076
0.55,1077
0.548,1077
0.546,1076
0.538,1076
0.536,1075
0.528,1075
0.526,1074
0.522,1074
0.52,1073
0.518,1073
0.516,1072
0.514,1072
0.512,1071
0.506,1071
0.502,1069
0.5,1069
0.494,1066
0.494,1065
0.49,1063
0.49,1062
0.488,1061
0.488,1060
0.486,1059
0.486,1058
0.482,1056
0.482,1055
0.478,1053
0.478,1051
0.476,1050
0.476,1049
0.474,1048
0.474,1046
0.472,1045
0.472,1044
0.468,1042
0.468,1041
0.466,1040
0.466,1038
0.46,1035
0.46,1034
0.458,1034
0.456,1033
0.448,1033
0.448,1034
0.444,1036
0.444,1037
0.44,1039
0.44,1040
0.436,1042
0.436,1043
0.434,1044
0.434,1045
0.428,1048
0.428,1049
0.426,1050
0.426,1051
0.418,1055
0.416,1055
0.416,1056
0.408,1060
0.408,1061
0.406,1062
0.406,1063
0.402,1065
0.402,1066
0.396,1069
0.396,1071
0.394,1072
0.394,1079
0.392,1080
0.392,1084
0.39,1085
0.39,1089
0.386,1091
0.384,1091
0.38,1089
0.38,1086
0.378,1085
0.378,1079
0.376,1078
0.376,1076
0.36,1076
0.358,1075
0.356,1076
0.342,1076
0.34,1075
0.338,1075
0.336,1074
0.328,1074
0.326,1073
0.324,1073
0.32,1071
0.32,1070
0.318,1069
0.312,1069
0.308,1071
0.304,1071
0.302,1070
0.302,1069
0.308,1066
0.31,1066
0.312,1065
0.318,1065
0.32,1066
0.322,1066
0.326,1068
0.326,1069
0.328,1070
0.336,1070
0.338,1071
0.344,1071
0.346,1072
0.358,1072
0.36,1071
0.374,1071
0.374,1070
0.376,1069
0.376,1068
0.378,1067
0.38,1067
0.382,1068
0.382,1075
0.384,1076
0.384,1077
0.384,1075
0.382,1074
0.382,1067
0.376,1067
0.376,1069
0.372,1071
0.358,1071
0.356,1072
0.346,1072
0.344,1071
0.338,1071
0.336,1070
0.33,1070
0.326,1068
0.326,1067
0.324,1066
0.32,1066
0.318,1065
0.31,1065
0.308,1066
0.306,1066
0.302,1068
0.302,1071
0.31,1071
0.314,1069
0.316,1069
0.32,1071
0.32,1072
0.322,1073
0.326,1073
0.328,1074
0.334,1074
0.336,1075
0.34,1075
0.342,1076
0.356,1076
0.358,1075
0.36,1076
0.374,1076
0.376,1077
0.376,1078
0.378,1079
0.378,1085
0.38,1086
0.38,1089
0.382,1090
0.382,1091
0.388,1091
0.39,1090
0.39,1085
0.392,1084
0.392,1080
0.394,1079
0.394,1073
0.396,1072
0.396,1070
0.402,1067
0.402,1066
0.406,1064
0.406,1063
0.408,1062
0.408,1061
0.416,1057
0.416,1056
0.418,1055
0.42,1055
0.426,1052
0.426,1051
0.428,1050
0.428,1049
0.434,1046
0.434,1044
0.44,1041
0.44,1040
0.444,1038
0.444,1037
0.448,1035
0.448,1034
0.45,1033
0.456,1033
0.462,1036
0.462,1037
0.466,1039
0.466,1040
0.468,1041
0.468,1043
0.472,1045
0.472,1046
0.474,1047
0.474,1048
0.476,1049
0.476,1051
0.478,1052
0.478,1053
0.48,1054
0.48,1055
0.482,1056
0.482,1057
0.486,1059
0.486,1060
0.488,1061
0.488,1062
0.49,1063
0.49,1064
0.494,1066
0.494,1067
0.498,1069
0.5,1069
0.504,1071
0.512,1071
0.516,1073
0.52,1073
0.522,1074
0.524,1074
0.526,1075
0.536,1075
0.538,1076
0.546,1076
0.548,1077
0.55,1077
0.552,1076
0.56,1076
0.562,1077
0.566,1075
0.568,1076
0.576,1076
0.578,1077
0.582,1075
0.584,1075
0.592,1071
0.608,1071
0.612,1073
0.614,1073
0.618,1075
0.62,1075
0.624,1077
0.634,1077
0.636,1076
0.638,1077
0.64,1076
0.642,1077
0.644,1076
0.646,1077
0.664,1077
0.664,1076
0.666,1075
0.668,1075
0.672,1077
0.672,1088
0.674,1089
0.674,1091
0.676,1092
0.676,1093
0.682,1093
0.682,1092
0.684,1091
0.684,1088
0.686,1087
0.686,1084
0.688,1083
0.688,1077
0.69,1076
0.69,1075
0.692,1074
0.692,1073
0.694,1072
0.694,1071
0.696,1070
0.696,1069
0.698,1068
0.698,1067
0.7,1066
0.7,1065
0.704,1063
0.704,1062
0.716,1056
0.716,1055
0.722,1052
0.722,1051
0.728,1048
0.728,1047
0.73,1046
0.73,1045
0.736,1042
0.736,1041
0.738,1040
0.738,1039
0.74,1038
0.742,1038
0.744,1037
0.746,1038
0.748,1038
0.752,1040
0.754,1040
0.756,1041
0.756,1042
0.758,1043
0.758,1044
0.76,1045
0.76,1046
0.762,1047
0.762,1048
0.764,1049
0.764,1050
0.768,1052
0.768,1054
0.774,1057
0.774,1059
0.776,1060
0.776,1061
0.78,1063
0.78,1064
0.782,1065
0.782,1066
0.788,1069
0.788,1070
0.796,1074
0.8,1074
0.802,1075
0.806,1075
0.808,1076
0.81,1076
0.812,1077
0.818,1077
0.82,1078
0.832,1078
0.834,1079
0.858,1079
0.862,1077
0.862,1076
0.864,1075
0.864,1074
0.866,1073
0.868,1073
0.87,1072
0.876,1072
0.88,1074
0.884,1074
0.886,1075
0.888,1075
0.892,1077
0.892,1078
0.938,1078
0.946,1082
0.946,1091
0.948,1092
0.948,1099
0.95,1100
0.95,1103
0.952,1104
0.958,1104
0.958,1101
0.96,1100
0.96,1094
0.962,1093
0.962,1089
0.964,1088
0.964,1081
0.966,1080
0.966,1077
0.97,1075
0.97,1073
0.972,1072
0.972,1070
0.974,1069
0.974,1068
0.976,1067
0.976,1066
0.978,1065
0.978,1064
0.98,1063
0.98,1062
1.0,1052
1.0,1050
1.002,1049
1.002,1048
1.008,1045
1.008,1043
1.018,1038
1.018,1037
1.02,1036
1.022,1036
1.034,1042
1.034,1043
1.036,1044
1.036,1045
1.038,1046
1.038,1047
1.04,1048
1.04,1049
1.044,1051
1.044,1052
1.046,1053
1.046,1055
1.048,1056
1.048,1057
1.052,1059
1.052,1060
1.054,1061
1.054,1063
1.056,1064
1.056,1065
1.058,1066
1.058,1067
1.064,1070
1.064,1071
1.066,1072
1.068,1072
1.07,1073
1.076,1073
1.078,1074
1.08,1074
1.082,1075
1.086,1075
1.088,1076
1.092,1076
1.094,1077
1.102,1077
1.104,1078
1.13,1078
1.132,1077
1.136,1077
1.138,1078
1.156,1078
1.162,1075
1.164,1075
1.166,1074
1.168,1074
1.17,1073
1.182,1073
1.184,1074
1.19,1074
1.192,1075
1.194,1075
1.198,1077
1.2,1077
1.202,1078
1.226,1078
1.228,1079
1.24,1079
1.248,1083
1.248,1084
1.25,1085
1.25,1096
1.252,1097
1.252,1099
1.258,1099
1.258,1098
1.26,1097
1.26,1092
1.262,1091
1.262,1086
1.264,1085
1.264,1076
1.266,1075
1.266,1073
1.268,1072
1.268,1071
1.27,1070
1.27,1069
1.274,1067
1.274,1066
1.276,1065
1.276,1064
1.282,1061
1.284,1062
1.284,1106
1.286,1107
1.286,1109
1.29,1109
1.29,1108
1.292,1107
1.292,1061
1.294,1060
1.294,1059
1.296,1058
1.296,1056
1.3,1054
1.302,1055
1.302,1058
1.3,1059
1.302,1058
1.306,1058
1.308,1059
1.31,1058
1.308,1057
1.308,1049
1.316,1045
1.316,1044
1.32,1042
1.322,1043
1.322,1045
1.324,1046
1.324,1047
1.326,1048
1.326,1049
1.328,1050
1.328,1051
1.33,1052
1.33,1054
1.332,1055
1.332,1056
1.334,1057
1.334,1058
1.336,1057
1.338,1058
1.34,1057
1.34,1056
1.342,1055
1.34,1055
1.338,1054
1.338,1053
1.336,1052
1.336,1051
1.334,1050
1.334,1049
1.332,1048
1.336,1046
1.338,1047
1.338,1048
1.34,1049
1.34,1050
1.342,1051
1.342,1052
1.346,1054
1.346,1055
1.348,1056
1.348,1057
1.35,1058
1.35,1060
1.352,1061
1.352,1062
1.356,1064
1.356,1065
1.358,1066
1.358,1067
1.366,1071
1.368,1071
1.374,1074
1.376,1074
1.378,1075
1.382,1075
1.384,1076
1.392,1076
1.394,1075
1.404,1075
1.41,1078
1.418,1078
1.42,1077
1.424,1079
1.432,1079
1.434,1078
1.446,1078
1.448,1077
1.45,1078
1.45,1077
1.452,1076
1.452,1075
1.456,1073
1.464,1073
1.468,1071
1.476,1071
1.486,1076
1.486,1077
1.49,1077
1.492,1078
1.496,1076
1.498,1076
1.502,1078
1.514,1078
1.516,1079
1.522,1079
1.524,1080
1.53,1080
1.532,1079
1.532,1078
1.534,1077
1.534,1076
1.536,1075
1.536,1074
1.54,1072
1.542,1073
1.542,1074
1.544,1075
1.544,1078
1.55,1078
1.552,1077
1.552,1076
1.554,1075
1.564,1075
1.564,1073
1.566,1072
1.566,1071
1.568,1070
1.568,1069
1.572,1067
1.572,1066
1.574,1065
1.576,1065
1.58,1063
1.58,1062
1.596,1054
1.596,1053
